# 04/03/2022 
# Density retrieved from www.chemicool.com/densities.html 
# Includes the real (n) and complex (k) part of the  refractive index. 
# Element, Ac  (Z = 89) 
# Nominal density, g cm-3 =  10.07 
#    E [keV]      n       k    Wavelength [nm] 
1.000000000E+00 9.990344254E-01 6.614294824E-04 1.239841975E+00
1.100000000E+00 9.991372999E-01 5.009033290E-04 1.127129068E+00
1.200000000E+00 9.992356627E-01 3.852171725E-04 1.033201645E+00
1.300000000E+00 9.993261522E-01 3.110461318E-04 9.537245958E-01
1.400000000E+00 9.994179459E-01 2.674724026E-04 8.856014104E-01
1.500000000E+00 9.994712971E-01 2.032591431E-04 8.265613164E-01
1.600000000E+00 9.995341232E-01 1.770035290E-04 7.749012341E-01
1.700000000E+00 9.995798466E-01 1.385160782E-04 7.293188086E-01
1.800000000E+00 9.996222161E-01 1.161739343E-04 6.888010970E-01
1.900000000E+00 9.996607323E-01 1.037680485E-04 6.525484077E-01
2.000000000E+00 9.996930501E-01 8.353173499E-05 6.199209873E-01
2.100000000E+00 9.997212779E-01 7.164987372E-05 5.904009403E-01
2.200000000E+00 9.997458442E-01 6.267551401E-05 5.635645339E-01
2.300000000E+00 9.997674643E-01 5.734394855E-05 5.390617281E-01
2.400000000E+00 9.997892365E-01 4.685371870E-05 5.166008227E-01
2.500000000E+00 9.998067608E-01 4.110271989E-05 4.959367898E-01
2.600000000E+00 9.998218116E-01 3.702125678E-05 4.768622979E-01
2.700000000E+00 9.998383761E-01 3.206596964E-05 4.592007313E-01
2.800000000E+00 9.998518166E-01 2.849825156E-05 4.428007052E-01
2.900000000E+00 9.998625837E-01 2.611284340E-05 4.275317154E-01
3.000000000E+00 9.998776434E-01 2.276065088E-05 4.132806582E-01
3.100000000E+00 9.998917211E-01 2.044547238E-05 3.999490241E-01
3.200000000E+00 9.999115288E-01 2.090354934E-05 3.874506171E-01
3.300000000E+00 9.999129111E-01 4.107518352E-05 3.757096893E-01
3.400000000E+00 9.999179057E-01 4.707451545E-05 3.646594043E-01
3.500000000E+00 9.999090587E-01 4.776315264E-05 3.542405642E-01
3.600000000E+00 9.999088549E-01 4.342495828E-05 3.444005485E-01
3.700000000E+00 9.999109602E-01 3.946015505E-05 3.350924256E-01
3.800000000E+00 9.999143201E-01 3.594980818E-05 3.262742038E-01
3.900000000E+00 9.999191426E-01 3.516958105E-05 3.179081986E-01
4.000000000E+00 9.999202930E-01 3.516153264E-05 3.099604936E-01
4.100000000E+00 9.999215354E-01 3.251151843E-05 3.024004816E-01
4.200000000E+00 9.999231068E-01 2.950665554E-05 2.952004701E-01
4.300000000E+00 9.999261257E-01 2.779124278E-05 2.883353429E-01
4.400000000E+00 9.999281083E-01 2.507510341E-05 2.817822670E-01
4.500000000E+00 9.999310077E-01 2.368736630E-05 2.755204388E-01
4.600000000E+00 9.999335633E-01 2.163593474E-05 2.695308640E-01
4.700000000E+00 9.999363877E-01 2.084728099E-05 2.637961648E-01
4.800000000E+00 9.999378100E-01 1.965150543E-05 2.583004114E-01
4.900000000E+00 9.999400036E-01 1.837985750E-05 2.530289744E-01
5.000000000E+00 9.999420944E-01 1.761557607E-05 2.479683949E-01
5.100000000E+00 9.999436622E-01 1.659574966E-05 2.431062695E-01
5.200000000E+00 9.999455379E-01 1.583023066E-05 2.384311490E-01
5.300000000E+00 9.999470436E-01 1.460522702E-05 2.339324480E-01
5.400000000E+00 9.999486759E-01 1.369783696E-05 2.296003657E-01
5.500000000E+00 9.999504846E-01 1.315576939E-05 2.254258136E-01
5.600000000E+00 9.999518698E-01 1.209270269E-05 2.214003526E-01
5.700000000E+00 9.999533628E-01 1.137792864E-05 2.175161359E-01
5.800000000E+00 9.999548008E-01 1.073486275E-05 2.137658577E-01
5.900000000E+00 9.999563200E-01 1.037405294E-05 2.101427076E-01
6.000000000E+00 9.999577639E-01 1.003113286E-05 2.066403291E-01
6.100000000E+00 9.999588161E-01 9.006034707E-06 2.032527827E-01
6.200000000E+00 9.999600395E-01 8.512303299E-06 1.999745120E-01
6.300000000E+00 9.999612403E-01 8.118753278E-06 1.968003134E-01
6.400000000E+00 9.999624421E-01 7.867024355E-06 1.937253085E-01
6.500000000E+00 9.999635889E-01 7.626824085E-06 1.907449192E-01
6.600000000E+00 9.999645066E-01 6.853427460E-06 1.878548446E-01
6.700000000E+00 9.999655102E-01 6.503148263E-06 1.850510410E-01
6.800000000E+00 9.999664719E-01 6.174561690E-06 1.823297021E-01
6.900000000E+00 9.999674158E-01 5.932863619E-06 1.796872427E-01
7.000000000E+00 9.999683401E-01 5.764564018E-06 1.771202821E-01
7.100000000E+00 9.999692257E-01 5.603325469E-06 1.746256302E-01
7.200000000E+00 9.999699944E-01 5.057370362E-06 1.722002742E-01
7.300000000E+00 9.999707900E-01 4.818120639E-06 1.698413664E-01
7.400000000E+00 9.999715544E-01 4.592542151E-06 1.675462128E-01
7.500000000E+00 9.999722892E-01 4.379699590E-06 1.653122633E-01
7.600000000E+00 9.999730066E-01 4.230941658E-06 1.631371019E-01
7.700000000E+00 9.999737031E-01 4.121760671E-06 1.610184383E-01
7.800000000E+00 9.999743731E-01 4.016751976E-06 1.589540993E-01
7.900000000E+00 9.999750178E-01 3.915705659E-06 1.569420221E-01
8.000000000E+00 9.999756384E-01 3.818424847E-06 1.549802468E-01
8.100000000E+00 9.999762080E-01 3.348859899E-06 1.530669104E-01
8.200000000E+00 9.999767802E-01 3.207538215E-06 1.512002408E-01
8.300000000E+00 9.999773321E-01 3.073428405E-06 1.493785512E-01
8.400000000E+00 9.999778644E-01 2.946089252E-06 1.476002351E-01
8.500000000E+00 9.999783783E-01 2.825111111E-06 1.458637617E-01
8.600000000E+00 9.999788745E-01 2.710113320E-06 1.441676715E-01
8.700000000E+00 9.999793561E-01 2.631424994E-06 1.425105718E-01
8.800000000E+00 9.999798226E-01 2.571959683E-06 1.408911335E-01
8.900000000E+00 9.999802735E-01 2.514487537E-06 1.393080870E-01
9.000000000E+00 9.999807094E-01 2.458920467E-06 1.377602194E-01
9.100000000E+00 9.999811310E-01 2.405175194E-06 1.362463708E-01
9.200000000E+00 9.999815555E-01 2.138064005E-06 1.347654320E-01
9.300000000E+00 9.999819527E-01 2.057734705E-06 1.333163414E-01
9.400000000E+00 9.999823372E-01 1.981042067E-06 1.318980824E-01
9.500000000E+00 9.999827095E-01 1.907788744E-06 1.305096815E-01
9.600000000E+00 9.999830702E-01 1.837789923E-06 1.291502057E-01
9.700000000E+00 9.999834197E-01 1.770872410E-06 1.278187603E-01
9.800000000E+00 9.999837585E-01 1.706873800E-06 1.265144872E-01
9.900000000E+00 9.999840857E-01 1.663592410E-06 1.252365631E-01
1.000000000E+01 9.999844024E-01 1.630486921E-06 1.239841975E-01
1.010000000E+01 9.999847097E-01 1.598359887E-06 1.227566311E-01
1.020000000E+01 9.999850080E-01 1.567173127E-06 1.215531348E-01
1.030000000E+01 9.999852977E-01 1.536890302E-06 1.203730072E-01
1.040000000E+01 9.999855791E-01 1.507476813E-06 1.192155745E-01
1.050000000E+01 9.999858525E-01 1.478899702E-06 1.180801881E-01
1.060000000E+01 9.999861615E-01 1.294189981E-06 1.169662240E-01
1.070000000E+01 9.999864240E-01 1.251656416E-06 1.158730817E-01
1.080000000E+01 9.999866792E-01 1.210804443E-06 1.148001828E-01
1.090000000E+01 9.999869272E-01 1.171554338E-06 1.137469701E-01
1.100000000E+01 9.999871684E-01 1.133830804E-06 1.127129068E-01
1.110000000E+01 9.999874029E-01 1.097562687E-06 1.116974752E-01
1.120000000E+01 9.999876311E-01 1.062682723E-06 1.107001763E-01
1.130000000E+01 9.999878531E-01 1.029127283E-06 1.097205287E-01
1.140000000E+01 9.999880682E-01 1.000821243E-06 1.087580679E-01
1.150000000E+01 9.999882748E-01 9.834913328E-07 1.078123456E-01
1.160000000E+01 9.999884761E-01 9.666076752E-07 1.068829288E-01
1.170000000E+01 9.999886722E-01 9.501550790E-07 1.059693995E-01
1.180000000E+01 9.999888634E-01 9.341189943E-07 1.050713538E-01
1.190000000E+01 9.999890498E-01 9.184854796E-07 1.041884012E-01
1.200000000E+01 9.999892315E-01 9.032411720E-07 1.033201645E-01
1.210000000E+01 9.999894088E-01 8.883732584E-07 1.024662789E-01
1.220000000E+01 9.999896373E-01 7.838961909E-07 1.016263914E-01
1.230000000E+01 9.999898112E-01 7.613181099E-07 1.008001605E-01
1.240000000E+01 9.999899808E-01 7.395203061E-07 9.998725601E-02
1.250000000E+01 9.999901462E-01 7.184704415E-07 9.918735797E-02
1.260000000E+01 9.999903076E-01 6.981377490E-07 9.840015671E-02
1.270000000E+01 9.999904650E-01 6.784929453E-07 9.762535233E-02
1.280000000E+01 9.999906186E-01 6.595081480E-07 9.686265426E-02
1.290000000E+01 9.999907685E-01 6.411567994E-07 9.611178098E-02
1.300000000E+01 9.999909117E-01 6.286221988E-07 9.537245958E-02
1.310000000E+01 9.999910499E-01 6.190615442E-07 9.464442554E-02
1.320000000E+01 9.999911850E-01 6.097173531E-07 9.392742232E-02
1.330000000E+01 9.999913171E-01 6.005831398E-07 9.322120110E-02
1.340000000E+01 9.999914462E-01 5.916526598E-07 9.252552049E-02
1.350000000E+01 9.999915724E-01 5.829198990E-07 9.184014627E-02
1.360000000E+01 9.999917520E-01 5.308135626E-07 9.116485107E-02
1.370000000E+01 9.999918798E-01 5.170065800E-07 9.049941420E-02
1.380000000E+01 9.999920046E-01 5.036295353E-07 8.984362135E-02
1.390000000E+01 9.999921266E-01 4.906663751E-07 8.919726436E-02
1.400000000E+01 9.999922459E-01 4.781017490E-07 8.856014104E-02
1.410000000E+01 9.999923625E-01 4.659209740E-07 8.793205493E-02
1.420000000E+01 9.999924714E-01 4.580104033E-07 8.731281511E-02
1.430000000E+01 9.999925763E-01 4.516270611E-07 8.670223598E-02
1.440000000E+01 9.999926791E-01 4.453762429E-07 8.610013712E-02
1.450000000E+01 9.999928259E-01 4.215035058E-07 8.550634307E-02
1.460000000E+01 9.999929356E-01 4.112213487E-07 8.492068319E-02
1.470000000E+01 9.999930429E-01 4.012397836E-07 8.434299147E-02
1.480000000E+01 9.999931477E-01 3.915482669E-07 8.377310639E-02
1.490000000E+01 9.999932469E-01 3.834076876E-07 8.321087078E-02
1.500000000E+01 9.999933367E-01 3.783126255E-07 8.265613164E-02
1.510000000E+01 9.999934704E-01 3.642786103E-07 8.210874004E-02
1.520000000E+01 9.999935752E-01 3.557165965E-07 8.156855096E-02
1.530000000E+01 9.999936776E-01 3.473953996E-07 8.103542318E-02
1.540000000E+01 9.999937619E-01 3.424101593E-07 8.050921913E-02
1.550000000E+01 9.999939087E-01 3.332886072E-07 7.998980481E-02
1.560000000E+01 9.999940363E-01 3.335361522E-07 7.947704965E-02
1.570000000E+01 9.999941807E-01 3.541106946E-07 7.897082641E-02
1.580000000E+01 9.999943146E-01 4.071738057E-07 7.847101105E-02
1.590000000E+01 9.999944139E-01 5.061169961E-07 7.797748268E-02
1.600000000E+01 9.999944649E-01 5.910161120E-07 7.749012341E-02
1.610000000E+01 9.999944776E-01 6.497238501E-07 7.700881830E-02
1.620000000E+01 9.999944622E-01 6.756821804E-07 7.653345522E-02
1.630000000E+01 9.999944655E-01 6.654946432E-07 7.606392482E-02
1.640000000E+01 9.999945215E-01 6.570661220E-07 7.560012040E-02
1.650000000E+01 9.999945465E-01 6.384899895E-07 7.514193785E-02
1.660000000E+01 9.999945891E-01 6.249135734E-07 7.468927558E-02
1.670000000E+01 9.999946505E-01 6.166195032E-07 7.424203441E-02
1.680000000E+01 9.999947140E-01 6.093006422E-07 7.380011753E-02
1.690000000E+01 9.999947429E-01 5.848568176E-07 7.336343045E-02
1.700000000E+01 9.999947933E-01 5.721619700E-07 7.293188086E-02
1.710000000E+01 9.999948461E-01 5.613979277E-07 7.250537863E-02
1.720000000E+01 9.999949058E-01 5.548890212E-07 7.208383573E-02
1.730000000E+01 9.999949645E-01 5.484926594E-07 7.166716616E-02
1.740000000E+01 9.999950075E-01 5.254106909E-07 7.125528590E-02
1.750000000E+01 9.999950601E-01 5.144896515E-07 7.084811283E-02
1.760000000E+01 9.999951118E-01 5.038376160E-07 7.044556674E-02
1.770000000E+01 9.999951627E-01 4.934466541E-07 7.004756919E-02
1.780000000E+01 9.999952162E-01 4.870890979E-07 6.965404352E-02
1.790000000E+01 9.999952695E-01 4.816619637E-07 6.926491478E-02
1.800000000E+01 9.999953219E-01 4.763250302E-07 6.888010970E-02
1.810000000E+01 9.999953754E-01 4.543146625E-07 6.849955661E-02
1.820000000E+01 9.999954266E-01 4.451121933E-07 6.812318542E-02
1.830000000E+01 9.999954769E-01 4.361288470E-07 6.775092757E-02
1.840000000E+01 9.999955261E-01 4.296889092E-07 6.738271601E-02
1.850000000E+01 9.999955744E-01 4.250561785E-07 6.701848511E-02
1.860000000E+01 9.999956382E-01 4.108272491E-07 6.665817068E-02
1.870000000E+01 9.999956908E-01 4.028045968E-07 6.630170987E-02
1.880000000E+01 9.999957374E-01 3.980391758E-07 6.594904120E-02
1.890000000E+01 9.999958127E-01 3.961168808E-07 6.560010448E-02
1.900000000E+01 9.999958610E-01 3.922830282E-07 6.525484077E-02
1.910000000E+01 9.999959341E-01 4.182985789E-07 6.491319239E-02
1.920000000E+01 9.999959766E-01 4.508126635E-07 6.457510284E-02
1.930000000E+01 9.999960182E-01 4.579776482E-07 6.424051682E-02
1.940000000E+01 9.999960307E-01 4.825187823E-07 6.390938013E-02
1.950000000E+01 9.999960691E-01 4.798277027E-07 6.358163972E-02
1.960000000E+01 9.999960885E-01 4.811283681E-07 6.325724360E-02
1.970000000E+01 9.999961262E-01 4.768596939E-07 6.293614084E-02
1.980000000E+01 9.999961540E-01 4.897077333E-07 6.261828154E-02
1.990000000E+01 9.999961872E-01 4.932280132E-07 6.230361681E-02
2.000000000E+01 9.999962253E-01 4.883080638E-07 6.199209873E-02
2.010000000E+01 9.999962288E-01 4.958120053E-07 6.168368033E-02
2.020000000E+01 9.999962571E-01 4.941685883E-07 6.137831557E-02
2.030000000E+01 9.999962939E-01 4.893119241E-07 6.107595934E-02
2.040000000E+01 9.999963014E-01 4.776821872E-07 6.077656738E-02
2.050000000E+01 9.999963307E-01 4.714533379E-07 6.048009632E-02
2.060000000E+01 9.999963663E-01 4.668872308E-07 6.018650362E-02
2.070000000E+01 9.999964013E-01 4.623871392E-07 5.989574756E-02
2.080000000E+01 9.999964121E-01 4.466110023E-07 5.960778724E-02
2.090000000E+01 9.999964396E-01 4.391373730E-07 5.932258252E-02
2.100000000E+01 9.999964698E-01 4.332289479E-07 5.904009403E-02
2.110000000E+01 9.999965032E-01 4.291322433E-07 5.876028316E-02
2.120000000E+01 9.999965361E-01 4.250933740E-07 5.848311201E-02
2.130000000E+01 9.999965530E-01 4.107641744E-07 5.820854341E-02
2.140000000E+01 9.999965808E-01 4.040247394E-07 5.793654087E-02
2.150000000E+01 9.999966082E-01 3.974194390E-07 5.766706859E-02
2.160000000E+01 9.999966354E-01 3.909450536E-07 5.740009142E-02
2.170000000E+01 9.999966647E-01 3.862923645E-07 5.713557487E-02
2.180000000E+01 9.999966952E-01 3.827565262E-07 5.687348507E-02
2.190000000E+01 9.999967253E-01 3.792690134E-07 5.661378879E-02
2.200000000E+01 9.999967550E-01 3.758289494E-07 5.635645339E-02
2.210000000E+01 9.999967843E-01 3.724354774E-07 5.610144681E-02
2.220000000E+01 9.999967972E-01 3.549056434E-07 5.584873759E-02
2.230000000E+01 9.999968232E-01 3.493016119E-07 5.559829482E-02
2.240000000E+01 9.999968488E-01 3.438047695E-07 5.535008815E-02
2.250000000E+01 9.999968741E-01 3.384126443E-07 5.510408776E-02
2.260000000E+01 9.999968993E-01 3.333024325E-07 5.486026436E-02
2.270000000E+01 9.999969265E-01 3.303723154E-07 5.461858919E-02
2.280000000E+01 9.999969534E-01 3.274806679E-07 5.437903397E-02
2.290000000E+01 9.999969800E-01 3.246268195E-07 5.414157094E-02
2.300000000E+01 9.999970062E-01 3.218101142E-07 5.390617281E-02
2.310000000E+01 9.999970321E-01 3.190299103E-07 5.367281275E-02
2.320000000E+01 9.999970466E-01 3.035629109E-07 5.344146442E-02
2.330000000E+01 9.999970702E-01 2.989506710E-07 5.321210191E-02
2.340000000E+01 9.999970934E-01 2.944230676E-07 5.298469977E-02
2.350000000E+01 9.999971164E-01 2.899782297E-07 5.275923296E-02
2.360000000E+01 9.999971392E-01 2.856143349E-07 5.253567689E-02
2.370000000E+01 9.999971617E-01 2.813296080E-07 5.231400737E-02
2.380000000E+01 9.999971847E-01 2.781478930E-07 5.209420061E-02
2.390000000E+01 9.999972083E-01 2.758251651E-07 5.187623325E-02
2.400000000E+01 9.999972315E-01 2.735314106E-07 5.166008227E-02
2.410000000E+01 9.999972544E-01 2.712661499E-07 5.144572509E-02
2.420000000E+01 9.999972770E-01 2.690289129E-07 5.123313945E-02
2.430000000E+01 9.999972994E-01 2.668192392E-07 5.102230348E-02
2.440000000E+01 9.999973143E-01 2.536204625E-07 5.081319568E-02
2.450000000E+01 9.999973351E-01 2.499390705E-07 5.060579488E-02
2.460000000E+01 9.999973557E-01 2.463220605E-07 5.040008027E-02
2.470000000E+01 9.999973760E-01 2.427680768E-07 5.019603136E-02
2.480000000E+01 9.999973961E-01 2.392757974E-07 4.999362801E-02
2.490000000E+01 9.999974160E-01 2.358439329E-07 4.979285038E-02
2.500000000E+01 9.999974356E-01 2.324712255E-07 4.959367898E-02
2.510000000E+01 9.999974553E-01 2.295226262E-07 4.939609460E-02
2.520000000E+01 9.999974755E-01 2.277046324E-07 4.920007836E-02
2.530000000E+01 9.999974954E-01 2.259081531E-07 4.900561164E-02
2.540000000E+01 9.999975151E-01 2.241328504E-07 4.881267616E-02
2.550000000E+01 9.999975345E-01 2.223783925E-07 4.862125391E-02
2.560000000E+01 9.999975537E-01 2.206444546E-07 4.843132713E-02
2.570000000E+01 9.999975727E-01 2.189307177E-07 4.824287839E-02
2.580000000E+01 9.999975915E-01 2.172368694E-07 4.805589049E-02
2.590000000E+01 9.999976046E-01 2.049685882E-07 4.787034651E-02
2.600000000E+01 9.999976224E-01 2.021660877E-07 4.768622979E-02
2.610000000E+01 9.999976399E-01 1.994097818E-07 4.750352393E-02
2.620000000E+01 9.999976573E-01 1.966987534E-07 4.732221277E-02
2.630000000E+01 9.999976745E-01 1.940321068E-07 4.714228040E-02
2.640000000E+01 9.999976915E-01 1.914089673E-07 4.696371116E-02
2.650000000E+01 9.999977083E-01 1.888284803E-07 4.678648961E-02
2.660000000E+01 9.999977249E-01 1.862898111E-07 4.661060055E-02
2.670000000E+01 9.999977418E-01 1.845945309E-07 4.643602901E-02
2.680000000E+01 9.999977586E-01 1.832195299E-07 4.626276025E-02
2.690000000E+01 9.999977752E-01 1.818598349E-07 4.609077972E-02
2.700000000E+01 9.999977917E-01 1.805152197E-07 4.592007313E-02
2.710000000E+01 9.999978079E-01 1.791854620E-07 4.575062637E-02
2.720000000E+01 9.999978240E-01 1.778703438E-07 4.558242554E-02
2.730000000E+01 9.999978399E-01 1.765696510E-07 4.541545694E-02
2.740000000E+01 9.999978557E-01 1.752831733E-07 4.524970710E-02
2.750000000E+01 9.999978678E-01 1.653731429E-07 4.508516271E-02
2.760000000E+01 9.999978828E-01 1.632289930E-07 4.492181067E-02
2.770000000E+01 9.999978977E-01 1.611182342E-07 4.475963807E-02
2.780000000E+01 9.999979124E-01 1.590402409E-07 4.459863218E-02
2.790000000E+01 9.999979270E-01 1.569944011E-07 4.443878045E-02
2.800000000E+01 9.999979414E-01 1.549801164E-07 4.428007052E-02
2.810000000E+01 9.999979557E-01 1.529968013E-07 4.412249020E-02
2.820000000E+01 9.999979698E-01 1.510438834E-07 4.396602747E-02
2.830000000E+01 9.999979838E-01 1.491208025E-07 4.381067048E-02
2.840000000E+01 9.999979977E-01 1.475031659E-07 4.365640756E-02
2.850000000E+01 9.999980118E-01 1.464698720E-07 4.350322718E-02
2.860000000E+01 9.999980256E-01 1.454473978E-07 4.335111799E-02
2.870000000E+01 9.999980394E-01 1.444355929E-07 4.320006880E-02
2.880000000E+01 9.999980530E-01 1.434343093E-07 4.305006856E-02
2.890000000E+01 9.999980664E-01 1.424434017E-07 4.290110639E-02
2.900000000E+01 9.999980797E-01 1.414627271E-07 4.275317154E-02
2.910000000E+01 9.999980929E-01 1.404921453E-07 4.260625342E-02
2.920000000E+01 9.999981059E-01 1.395315180E-07 4.246034160E-02
2.930000000E+01 9.999981188E-01 1.385807098E-07 4.231542575E-02
2.940000000E+01 9.999981295E-01 1.300611933E-07 4.217149573E-02
2.950000000E+01 9.999981419E-01 1.284800553E-07 4.202854151E-02
2.960000000E+01 9.999981542E-01 1.269219827E-07 4.188655320E-02
2.970000000E+01 9.999981665E-01 1.253865706E-07 4.174552103E-02
2.980000000E+01 9.999981786E-01 1.238734225E-07 4.160543539E-02
2.990000000E+01 9.999981905E-01 1.223821503E-07 4.146628678E-02
3.000000000E+01 9.999982024E-01 1.209123735E-07 4.132806582E-02
3.010000000E+01 9.999982141E-01 1.194637195E-07 4.119076328E-02
3.020000000E+01 9.999982257E-01 1.180358235E-07 4.105437002E-02
3.030000000E+01 9.999982373E-01 1.166283279E-07 4.091887705E-02
3.040000000E+01 9.999982487E-01 1.152408824E-07 4.078427548E-02
3.050000000E+01 9.999982600E-01 1.140356946E-07 4.065055654E-02
3.060000000E+01 9.999982713E-01 1.132915811E-07 4.051771159E-02
3.070000000E+01 9.999982826E-01 1.125547272E-07 4.038573207E-02
3.080000000E+01 9.999982937E-01 1.118250389E-07 4.025460956E-02
3.090000000E+01 9.999983047E-01 1.111024234E-07 4.012433575E-02
3.100000000E+01 9.999983157E-01 1.103867897E-07 3.999490241E-02
3.110000000E+01 9.999983265E-01 1.096780481E-07 3.986630143E-02
3.120000000E+01 9.999983372E-01 1.089761104E-07 3.973852483E-02
3.130000000E+01 9.999983478E-01 1.082808897E-07 3.961156468E-02
3.140000000E+01 9.999983583E-01 1.075923008E-07 3.948541320E-02
3.150000000E+01 9.999983687E-01 1.069102594E-07 3.936006269E-02
3.160000000E+01 9.999983778E-01 1.001983736E-07 3.923550552E-02
3.170000000E+01 9.999983880E-01 9.905536735E-08 3.911173421E-02
