# 04/03/2022 
# Density retrieved from www.chemicool.com/densities.html 
# Includes the real (n) and complex (k) part of the  refractive index. 
# Element, Ar  (Z = 18) 
# Nominal density, g cm-3 =  0.001784 
#    E [keV]      n       k    Wavelength [nm] 
1.000000000E+00 9.999996748E-01 5.601482952E-08 1.239841975E+00
1.100000000E+00 9.999997313E-01 4.368863618E-08 1.127129068E+00
1.200000000E+00 9.999997753E-01 2.928320883E-08 1.033201645E+00
1.300000000E+00 9.999998094E-01 2.181219006E-08 9.537245958E-01
1.400000000E+00 9.999998361E-01 1.712288790E-08 8.856014104E-01
1.500000000E+00 9.999998580E-01 1.294841827E-08 8.265613164E-01
1.600000000E+00 9.999998755E-01 1.053539627E-08 7.749012341E-01
1.700000000E+00 9.999998904E-01 8.183651650E-09 7.293188086E-01
1.800000000E+00 9.999999026E-01 6.640686760E-09 6.888010970E-01
1.900000000E+00 9.999999126E-01 5.960062355E-09 6.525484077E-01
2.000000000E+00 9.999999219E-01 4.487190775E-09 6.199209873E-01
2.100000000E+00 9.999999293E-01 3.924253709E-09 5.904009403E-01
2.200000000E+00 9.999999361E-01 3.152682228E-09 5.635645339E-01
2.300000000E+00 9.999999419E-01 2.667343997E-09 5.390617281E-01
2.400000000E+00 9.999999467E-01 2.418579260E-09 5.166008227E-01
2.500000000E+00 9.999999515E-01 1.956221089E-09 4.959367898E-01
2.600000000E+00 9.999999555E-01 1.703616446E-09 4.768622979E-01
2.700000000E+00 9.999999592E-01 1.465729263E-09 4.592007313E-01
2.800000000E+00 9.999999624E-01 1.302305982E-09 4.428007052E-01
2.900000000E+00 9.999999657E-01 1.120160591E-09 4.275317154E-01
3.000000000E+00 9.999999687E-01 9.925891336E-10 4.132806582E-01
3.100000000E+00 9.999999726E-01 8.819906908E-10 3.999490241E-01
3.200000000E+00 9.999999767E-01 5.759954976E-09 3.874506171E-01
3.300000000E+00 9.999999744E-01 6.511267528E-09 3.757096893E-01
3.400000000E+00 9.999999748E-01 5.969959044E-09 3.646594043E-01
3.500000000E+00 9.999999756E-01 5.444860398E-09 3.542405642E-01
3.600000000E+00 9.999999763E-01 4.931315366E-09 3.444005485E-01
3.700000000E+00 9.999999772E-01 4.472087074E-09 3.350924256E-01
3.800000000E+00 9.999999780E-01 3.988457289E-09 3.262742038E-01
3.900000000E+00 9.999999789E-01 3.632030218E-09 3.179081986E-01
4.000000000E+00 9.999999798E-01 3.378187010E-09 3.099604936E-01
4.100000000E+00 9.999999806E-01 3.033236618E-09 3.024004816E-01
4.200000000E+00 9.999999814E-01 2.780646975E-09 2.952004701E-01
4.300000000E+00 9.999999822E-01 2.554888487E-09 2.883353429E-01
4.400000000E+00 9.999999829E-01 2.351978540E-09 2.817822670E-01
4.500000000E+00 9.999999836E-01 2.169146138E-09 2.755204388E-01
4.600000000E+00 9.999999843E-01 2.004144219E-09 2.695308640E-01
4.700000000E+00 9.999999849E-01 1.868512356E-09 2.637961648E-01
4.800000000E+00 9.999999855E-01 1.717954617E-09 2.583004114E-01
4.900000000E+00 9.999999860E-01 1.594585949E-09 2.530289744E-01
5.000000000E+00 9.999999865E-01 1.481938986E-09 2.479683949E-01
5.100000000E+00 9.999999871E-01 1.402151390E-09 2.431062695E-01
5.200000000E+00 9.999999875E-01 1.300262664E-09 2.384311490E-01
5.300000000E+00 9.999999880E-01 1.196777238E-09 2.339324480E-01
5.400000000E+00 9.999999884E-01 1.134560973E-09 2.296003657E-01
5.500000000E+00 9.999999888E-01 1.043850458E-09 2.254258136E-01
5.600000000E+00 9.999999892E-01 9.830740164E-10 2.214003526E-01
5.700000000E+00 9.999999896E-01 9.488827686E-10 2.175161359E-01
5.800000000E+00 9.999999899E-01 8.583016815E-10 2.137658577E-01
5.900000000E+00 9.999999902E-01 8.055815009E-10 2.101427076E-01
6.000000000E+00 9.999999906E-01 7.630792531E-10 2.066403291E-01
6.100000000E+00 9.999999909E-01 7.382653349E-10 2.032527827E-01
6.200000000E+00 9.999999912E-01 7.146423807E-10 1.999745120E-01
6.300000000E+00 9.999999914E-01 6.320260196E-10 1.968003134E-01
6.400000000E+00 9.999999917E-01 5.959233890E-10 1.937253085E-01
6.500000000E+00 9.999999919E-01 5.622185586E-10 1.907449192E-01
6.600000000E+00 9.999999922E-01 5.379172673E-10 1.878548446E-01
6.700000000E+00 9.999999924E-01 5.219798655E-10 1.850510410E-01
6.800000000E+00 9.999999926E-01 5.067404015E-10 1.823297021E-01
6.900000000E+00 9.999999928E-01 4.921587096E-10 1.796872427E-01
7.000000000E+00 9.999999930E-01 4.264665279E-10 1.771202821E-01
7.100000000E+00 9.999999932E-01 4.042219804E-10 1.746256302E-01
7.200000000E+00 9.999999934E-01 3.833187783E-10 1.722002742E-01
7.300000000E+00 9.999999936E-01 3.636613349E-10 1.698413664E-01
7.400000000E+00 9.999999938E-01 3.506352141E-10 1.675462128E-01
7.500000000E+00 9.999999939E-01 3.413472768E-10 1.653122633E-01
7.600000000E+00 9.999999941E-01 3.324235513E-10 1.631371019E-01
7.700000000E+00 9.999999943E-01 3.238452407E-10 1.610184383E-01
7.800000000E+00 9.999999944E-01 3.155947456E-10 1.589540993E-01
7.900000000E+00 9.999999945E-01 2.704009130E-10 1.569420221E-01
8.000000000E+00 9.999999947E-01 2.577647059E-10 1.549802468E-01
8.100000000E+00 9.999999948E-01 2.458087786E-10 1.530669104E-01
8.200000000E+00 9.999999949E-01 2.344898448E-10 1.512002408E-01
8.300000000E+00 9.999999951E-01 2.237678199E-10 1.493785512E-01
8.400000000E+00 9.999999952E-01 2.151770486E-10 1.476002351E-01
8.500000000E+00 9.999999953E-01 2.101438415E-10 1.458637617E-01
8.600000000E+00 9.999999954E-01 2.052851886E-10 1.441676715E-01
8.700000000E+00 9.999999955E-01 2.005931107E-10 1.425105718E-01
8.800000000E+00 9.999999956E-01 1.960600794E-10 1.408911335E-01
8.900000000E+00 9.999999957E-01 1.916789868E-10 1.393080870E-01
9.000000000E+00 9.999999958E-01 1.646595379E-10 1.377602194E-01
9.100000000E+00 9.999999959E-01 1.578210450E-10 1.362463708E-01
9.200000000E+00 9.999999960E-01 1.513082547E-10 1.347654320E-01
9.300000000E+00 9.999999961E-01 1.451028359E-10 1.333163414E-01
9.400000000E+00 9.999999961E-01 1.391876575E-10 1.318980824E-01
9.500000000E+00 9.999999962E-01 1.335466987E-10 1.305096815E-01
9.600000000E+00 9.999999963E-01 1.302417175E-10 1.291502057E-01
9.700000000E+00 9.999999964E-01 1.275701635E-10 1.278187603E-01
9.800000000E+00 9.999999965E-01 1.249799738E-10 1.265144872E-01
9.900000000E+00 9.999999965E-01 1.224678776E-10 1.252365631E-01
1.000000000E+01 9.999999966E-01 1.200307668E-10 1.239841975E-01
1.010000000E+01 9.999999967E-01 1.176656865E-10 1.227566311E-01
1.020000000E+01 9.999999967E-01 1.018674323E-10 1.215531348E-01
1.030000000E+01 9.999999968E-01 9.809812778E-11 1.203730072E-01
1.040000000E+01 9.999999969E-01 9.448823293E-11 1.192155745E-01
1.050000000E+01 9.999999969E-01 9.102978116E-11 1.180801881E-01
1.060000000E+01 9.999999970E-01 8.771526930E-11 1.169662240E-01
1.070000000E+01 9.999999970E-01 8.453762680E-11 1.158730817E-01
1.080000000E+01 9.999999971E-01 8.167681777E-11 1.148001828E-01
1.090000000E+01 9.999999971E-01 8.018503514E-11 1.137469701E-01
1.100000000E+01 9.999999972E-01 7.873375227E-11 1.127129068E-01
1.110000000E+01 9.999999972E-01 7.732151631E-11 1.116974752E-01
1.120000000E+01 9.999999973E-01 7.594693897E-11 1.107001763E-01
1.130000000E+01 9.999999973E-01 7.460869312E-11 1.097205287E-01
1.140000000E+01 9.999999974E-01 7.330550958E-11 1.087580679E-01
1.150000000E+01 9.999999974E-01 6.405710359E-11 1.078123456E-01
1.160000000E+01 9.999999975E-01 6.193408555E-11 1.068829288E-01
1.170000000E+01 9.999999975E-01 5.989117557E-11 1.059693995E-01
1.180000000E+01 9.999999976E-01 5.792480266E-11 1.050713538E-01
1.190000000E+01 9.999999976E-01 5.603158120E-11 1.041884012E-01
1.200000000E+01 9.999999976E-01 5.420829995E-11 1.033201645E-01
1.210000000E+01 9.999999977E-01 5.245191179E-11 1.024662789E-01
1.220000000E+01 9.999999977E-01 5.135748019E-11 1.016263914E-01
1.230000000E+01 9.999999978E-01 5.052579385E-11 1.008001605E-01
1.240000000E+01 9.999999978E-01 4.971414771E-11 9.998725601E-02
1.250000000E+01 9.999999978E-01 4.892190305E-11 9.918735797E-02
1.260000000E+01 9.999999979E-01 4.814844641E-11 9.840015671E-02
1.270000000E+01 9.999999979E-01 4.739318837E-11 9.762535233E-02
1.280000000E+01 9.999999979E-01 4.665556245E-11 9.686265426E-02
1.290000000E+01 9.999999980E-01 4.094592386E-11 9.611178098E-02
1.300000000E+01 9.999999980E-01 3.972448747E-11 9.537245958E-02
1.310000000E+01 9.999999980E-01 3.854436213E-11 9.464442554E-02
1.320000000E+01 9.999999981E-01 3.740389789E-11 9.392742232E-02
1.330000000E+01 9.999999981E-01 3.630152159E-11 9.322120110E-02
1.340000000E+01 9.999999981E-01 3.523573274E-11 9.252552049E-02
1.350000000E+01 9.999999981E-01 3.420509967E-11 9.184014627E-02
1.360000000E+01 9.999999982E-01 3.320825597E-11 9.116485107E-02
1.370000000E+01 9.999999982E-01 3.228949640E-11 9.049941420E-02
1.380000000E+01 9.999999982E-01 3.182322821E-11 8.984362135E-02
1.390000000E+01 9.999999982E-01 3.136698711E-11 8.919726436E-02
1.400000000E+01 9.999999983E-01 3.092048765E-11 8.856014104E-02
1.410000000E+01 9.999999983E-01 3.048345445E-11 8.793205493E-02
1.420000000E+01 9.999999983E-01 3.005562180E-11 8.731281511E-02
1.430000000E+01 9.999999983E-01 2.963673324E-11 8.670223598E-02
1.440000000E+01 9.999999984E-01 2.922654118E-11 8.610013712E-02
1.450000000E+01 9.999999984E-01 2.882480656E-11 8.550634307E-02
1.460000000E+01 9.999999984E-01 2.520231097E-11 8.492068319E-02
1.470000000E+01 9.999999984E-01 2.453443814E-11 8.434299147E-02
1.480000000E+01 9.999999985E-01 2.388660188E-11 8.377310639E-02
1.490000000E+01 9.999999985E-01 2.325809215E-11 8.321087078E-02
1.500000000E+01 9.999999985E-01 2.264822829E-11 8.265613164E-02
1.510000000E+01 9.999999985E-01 2.205635756E-11 8.210874004E-02
1.520000000E+01 9.999999985E-01 2.148185383E-11 8.156855096E-02
1.530000000E+01 9.999999986E-01 2.092411637E-11 8.103542318E-02
1.540000000E+01 9.999999986E-01 2.038256866E-11 8.050921913E-02
1.550000000E+01 9.999999986E-01 2.001866875E-11 7.998980481E-02
1.560000000E+01 9.999999986E-01 1.976284175E-11 7.947704965E-02
1.570000000E+01 9.999999986E-01 1.951188757E-11 7.897082641E-02
1.580000000E+01 9.999999986E-01 1.926568325E-11 7.847101105E-02
1.590000000E+01 9.999999987E-01 1.902410968E-11 7.797748268E-02
1.600000000E+01 9.999999987E-01 1.878705144E-11 7.749012341E-02
1.610000000E+01 9.999999987E-01 1.855439670E-11 7.700881830E-02
1.620000000E+01 9.999999987E-01 1.832603707E-11 7.653345522E-02
1.630000000E+01 9.999999987E-01 1.631452604E-11 7.606392482E-02
1.640000000E+01 9.999999987E-01 1.592326271E-11 7.560012040E-02
1.650000000E+01 9.999999988E-01 1.554256739E-11 7.514193785E-02
1.660000000E+01 9.999999988E-01 1.517210320E-11 7.468927558E-02
1.670000000E+01 9.999999988E-01 1.481154577E-11 7.424203441E-02
1.680000000E+01 9.999999988E-01 1.446058273E-11 7.380011753E-02
1.690000000E+01 9.999999988E-01 1.411891319E-11 7.336343045E-02
1.700000000E+01 9.999999988E-01 1.378624724E-11 7.293188086E-02
1.710000000E+01 9.999999988E-01 1.346230551E-11 7.250537863E-02
1.720000000E+01 9.999999989E-01 1.328222581E-11 7.208383573E-02
1.730000000E+01 9.999999989E-01 1.312911785E-11 7.166716616E-02
1.740000000E+01 9.999999989E-01 1.297864210E-11 7.125528590E-02
1.750000000E+01 9.999999989E-01 1.283073855E-11 7.084811283E-02
1.760000000E+01 9.999999989E-01 1.268534892E-11 7.044556674E-02
1.770000000E+01 9.999999989E-01 1.254241655E-11 7.004756919E-02
1.780000000E+01 9.999999989E-01 1.240188639E-11 6.965404352E-02
1.790000000E+01 9.999999989E-01 1.226370489E-11 6.926491478E-02
1.800000000E+01 9.999999990E-01 1.212782001E-11 6.888010970E-02
1.810000000E+01 9.999999990E-01 1.199418114E-11 6.849955661E-02
1.820000000E+01 9.999999990E-01 1.054343893E-11 6.812318542E-02
1.830000000E+01 9.999999990E-01 1.031604591E-11 6.775092757E-02
1.840000000E+01 9.999999990E-01 1.009416928E-11 6.738271601E-02
1.850000000E+01 9.999999990E-01 9.877651089E-12 6.701848511E-02
1.860000000E+01 9.999999990E-01 9.666338649E-12 6.665817068E-02
1.870000000E+01 9.999999990E-01 9.460084344E-12 6.630170987E-02
1.880000000E+01 9.999999990E-01 9.258745442E-12 6.594904120E-02
1.890000000E+01 9.999999991E-01 9.062183905E-12 6.560010448E-02
1.900000000E+01 9.999999991E-01 8.870266211E-12 6.525484077E-02
1.910000000E+01 9.999999991E-01 8.682863190E-12 6.491319239E-02
1.920000000E+01 9.999999991E-01 8.499849855E-12 6.457510284E-02
1.930000000E+01 9.999999991E-01 8.330375519E-12 6.424051682E-02
1.940000000E+01 9.999999991E-01 8.244716700E-12 6.390938013E-02
1.950000000E+01 9.999999991E-01 8.160372327E-12 6.358163972E-02
1.960000000E+01 9.999999991E-01 8.077315642E-12 6.325724360E-02
1.970000000E+01 9.999999991E-01 7.995520568E-12 6.293614084E-02
1.980000000E+01 9.999999991E-01 7.914961680E-12 6.261828154E-02
1.990000000E+01 9.999999992E-01 7.835614195E-12 6.230361681E-02
2.000000000E+01 9.999999992E-01 7.757453943E-12 6.199209873E-02
2.010000000E+01 9.999999992E-01 7.680457358E-12 6.168368033E-02
2.020000000E+01 9.999999992E-01 7.604601454E-12 6.137831557E-02
2.030000000E+01 9.999999992E-01 7.529863809E-12 6.107595934E-02
2.040000000E+01 9.999999992E-01 6.689030831E-12 6.077656738E-02
2.050000000E+01 9.999999992E-01 6.559542450E-12 6.048009632E-02
2.060000000E+01 9.999999992E-01 6.432866129E-12 6.018650362E-02
2.070000000E+01 9.999999992E-01 6.308929803E-12 5.989574756E-02
2.080000000E+01 9.999999992E-01 6.187663560E-12 5.960778724E-02
2.090000000E+01 9.999999992E-01 6.068999569E-12 5.932258252E-02
2.100000000E+01 9.999999992E-01 5.952872009E-12 5.904009403E-02
2.110000000E+01 9.999999992E-01 5.839216998E-12 5.876028316E-02
2.120000000E+01 9.999999993E-01 5.727972534E-12 5.848311201E-02
2.130000000E+01 9.999999993E-01 5.619078422E-12 5.820854341E-02
2.140000000E+01 9.999999993E-01 5.512476224E-12 5.793654087E-02
2.150000000E+01 9.999999993E-01 5.408109192E-12 5.766706859E-02
2.160000000E+01 9.999999993E-01 5.305922217E-12 5.740009142E-02
2.170000000E+01 9.999999993E-01 5.242763650E-12 5.713557487E-02
2.180000000E+01 9.999999993E-01 5.194775220E-12 5.687348507E-02
2.190000000E+01 9.999999993E-01 5.147442662E-12 5.661378879E-02
2.200000000E+01 9.999999993E-01 5.100754081E-12 5.635645339E-02
2.210000000E+01 9.999999993E-01 5.054697847E-12 5.610144681E-02
2.220000000E+01 9.999999993E-01 5.009262591E-12 5.584873759E-02
2.230000000E+01 9.999999993E-01 4.964437200E-12 5.559829482E-02
2.240000000E+01 9.999999993E-01 4.920210809E-12 5.535008815E-02
2.250000000E+01 9.999999993E-01 4.876572791E-12 5.510408776E-02
2.260000000E+01 9.999999993E-01 4.833512756E-12 5.486026436E-02
2.270000000E+01 9.999999993E-01 4.791020543E-12 5.461858919E-02
2.280000000E+01 9.999999994E-01 4.749086210E-12 5.437903397E-02
2.290000000E+01 9.999999994E-01 4.208441691E-12 5.414157094E-02
2.300000000E+01 9.999999994E-01 4.135339881E-12 5.390617281E-02
2.310000000E+01 9.999999994E-01 4.063657456E-12 5.367281275E-02
2.320000000E+01 9.999999994E-01 3.993361910E-12 5.344146442E-02
2.330000000E+01 9.999999994E-01 3.924421605E-12 5.321210191E-02
2.340000000E+01 9.999999994E-01 3.856805747E-12 5.298469977E-02
2.350000000E+01 9.999999994E-01 3.790484354E-12 5.275923296E-02
2.360000000E+01 9.999999994E-01 3.725428240E-12 5.253567689E-02
2.370000000E+01 9.999999994E-01 3.661608984E-12 5.231400737E-02
2.380000000E+01 9.999999994E-01 3.598998909E-12 5.209420061E-02
2.390000000E+01 9.999999994E-01 3.537571061E-12 5.187623325E-02
2.400000000E+01 9.999999994E-01 3.477299186E-12 5.166008227E-02
2.410000000E+01 9.999999994E-01 3.418157708E-12 5.144572509E-02
2.420000000E+01 9.999999994E-01 3.360121714E-12 5.123313945E-02
2.430000000E+01 9.999999994E-01 3.311736933E-12 5.102230348E-02
2.440000000E+01 9.999999994E-01 3.284647174E-12 5.081319568E-02
2.450000000E+01 9.999999994E-01 3.257888449E-12 5.060579488E-02
2.460000000E+01 9.999999994E-01 3.231455386E-12 5.040008027E-02
2.470000000E+01 9.999999994E-01 3.205342723E-12 5.019603136E-02
2.480000000E+01 9.999999995E-01 3.179545301E-12 4.999362801E-02
2.490000000E+01 9.999999995E-01 3.154058066E-12 4.979285038E-02
2.500000000E+01 9.999999995E-01 3.128876067E-12 4.959367898E-02
2.510000000E+01 9.999999995E-01 3.103994447E-12 4.939609460E-02
2.520000000E+01 9.999999995E-01 3.079408449E-12 4.920007836E-02
2.530000000E+01 9.999999995E-01 3.055113408E-12 4.900561164E-02
2.540000000E+01 9.999999995E-01 3.031104752E-12 4.881267616E-02
2.550000000E+01 9.999999995E-01 3.007377996E-12 4.862125391E-02
2.560000000E+01 9.999999995E-01 2.983928744E-12 4.843132713E-02
2.570000000E+01 9.999999995E-01 2.644334977E-12 4.824287839E-02
2.580000000E+01 9.999999995E-01 2.603211060E-12 4.805589049E-02
2.590000000E+01 9.999999995E-01 2.562800539E-12 4.787034651E-02
2.600000000E+01 9.999999995E-01 2.523088821E-12 4.768622979E-02
2.610000000E+01 9.999999995E-01 2.484061660E-12 4.750352393E-02
2.620000000E+01 9.999999995E-01 2.445705149E-12 4.732221277E-02
2.630000000E+01 9.999999995E-01 2.408005710E-12 4.714228040E-02
2.640000000E+01 9.999999995E-01 2.370950086E-12 4.696371116E-02
2.650000000E+01 9.999999995E-01 2.334525333E-12 4.678648961E-02
2.660000000E+01 9.999999995E-01 2.298718809E-12 4.661060055E-02
2.670000000E+01 9.999999995E-01 2.263518167E-12 4.643602901E-02
2.680000000E+01 9.999999995E-01 2.228911350E-12 4.626276025E-02
2.690000000E+01 9.999999995E-01 2.194886579E-12 4.609077972E-02
2.700000000E+01 9.999999995E-01 2.161432347E-12 4.592007313E-02
2.710000000E+01 9.999999995E-01 2.128537412E-12 4.575062637E-02
2.720000000E+01 9.999999995E-01 2.110680712E-12 4.558242554E-02
2.730000000E+01 9.999999996E-01 2.095246170E-12 4.541545694E-02
2.740000000E+01 9.999999996E-01 2.079980311E-12 4.524970710E-02
2.750000000E+01 9.999999996E-01 2.064880685E-12 4.508516271E-02
2.760000000E+01 9.999999996E-01 2.049944888E-12 4.492181067E-02
2.770000000E+01 9.999999996E-01 2.035170559E-12 4.475963807E-02
2.780000000E+01 9.999999996E-01 2.020555378E-12 4.459863218E-02
2.790000000E+01 9.999999996E-01 2.006097067E-12 4.443878045E-02
2.800000000E+01 9.999999996E-01 1.991793390E-12 4.428007052E-02
2.810000000E+01 9.999999996E-01 1.977642150E-12 4.412249020E-02
2.820000000E+01 9.999999996E-01 1.963641188E-12 4.396602747E-02
2.830000000E+01 9.999999996E-01 1.949788383E-12 4.381067048E-02
2.840000000E+01 9.999999996E-01 1.936081653E-12 4.365640756E-02
2.850000000E+01 9.999999996E-01 1.922518951E-12 4.350322718E-02
2.860000000E+01 9.999999996E-01 1.909098267E-12 4.335111799E-02
2.870000000E+01 9.999999996E-01 1.692430240E-12 4.320006880E-02
2.880000000E+01 9.999999996E-01 1.668713621E-12 4.305006856E-02
2.890000000E+01 9.999999996E-01 1.645366527E-12 4.290110639E-02
2.900000000E+01 9.999999996E-01 1.622382170E-12 4.275317154E-02
2.910000000E+01 9.999999996E-01 1.599753911E-12 4.260625342E-02
2.920000000E+01 9.999999996E-01 1.577475250E-12 4.246034160E-02
2.930000000E+01 9.999999996E-01 1.555539826E-12 4.231542575E-02
2.940000000E+01 9.999999996E-01 1.533941415E-12 4.217149573E-02
2.950000000E+01 9.999999996E-01 1.512673921E-12 4.202854151E-02
2.960000000E+01 9.999999996E-01 1.491731380E-12 4.188655320E-02
2.970000000E+01 9.999999996E-01 1.471107952E-12 4.174552103E-02
2.980000000E+01 9.999999996E-01 1.450797919E-12 4.160543539E-02
2.990000000E+01 9.999999996E-01 1.430795682E-12 4.146628678E-02
3.000000000E+01 9.999999996E-01 1.411095761E-12 4.132806582E-02
3.010000000E+01 9.999999996E-01 1.391692788E-12 4.119076328E-02
3.020000000E+01 9.999999996E-01 1.372581505E-12 4.105437002E-02
3.030000000E+01 9.999999996E-01 1.353756764E-12 4.091887705E-02
3.040000000E+01 9.999999996E-01 1.338138170E-12 4.078427548E-02
3.050000000E+01 9.999999996E-01 1.329377879E-12 4.065055654E-02
3.060000000E+01 9.999999996E-01 1.320703331E-12 4.051771159E-02
3.070000000E+01 9.999999996E-01 1.312113414E-12 4.038573207E-02
3.080000000E+01 9.999999996E-01 1.303607028E-12 4.025460956E-02
3.090000000E+01 9.999999996E-01 1.295183096E-12 4.012433575E-02
3.100000000E+01 9.999999997E-01 1.286840553E-12 3.999490241E-02
3.110000000E+01 9.999999997E-01 1.278578356E-12 3.986630143E-02
3.120000000E+01 9.999999997E-01 1.270395475E-12 3.973852483E-02
3.130000000E+01 9.999999997E-01 1.262290900E-12 3.961156468E-02
3.140000000E+01 9.999999997E-01 1.254263633E-12 3.948541320E-02
3.150000000E+01 9.999999997E-01 1.246312695E-12 3.936006269E-02
3.160000000E+01 9.999999997E-01 1.238437121E-12 3.923550552E-02
3.170000000E+01 9.999999997E-01 1.230635962E-12 3.911173421E-02
