# 04/03/2022 
# Density retrieved from www.chemicool.com/densities.html 
# Includes the real (n) and complex (k) part of the  refractive index. 
# Element, At  (Z = 85) 
# Nominal density, g cm-3 =  7 
#    E [keV]      n       k    Wavelength [nm] 
1.000000000E+00 9.992521212E-01 4.047124563E-04 1.239841975E+00
1.100000000E+00 9.993557221E-01 3.165677899E-04 1.127129068E+00
1.200000000E+00 9.994407605E-01 2.433119642E-04 1.033201645E+00
1.300000000E+00 9.995131357E-01 1.941703494E-04 9.537245958E-01
1.400000000E+00 9.995802038E-01 1.674223931E-04 8.856014104E-01
1.500000000E+00 9.996250905E-01 1.249241752E-04 8.265613164E-01
1.600000000E+00 9.996685525E-01 1.054014372E-04 7.749012341E-01
1.700000000E+00 9.997063994E-01 9.336597897E-05 7.293188086E-01
1.800000000E+00 9.997375502E-01 7.118567523E-05 6.888010970E-01
1.900000000E+00 9.997642750E-01 6.015508506E-05 6.525484077E-01
2.000000000E+00 9.997872498E-01 5.410994898E-05 6.199209873E-01
2.100000000E+00 9.998101664E-01 4.382959785E-05 5.904009403E-01
2.200000000E+00 9.998283058E-01 3.780369861E-05 5.635645339E-01
2.300000000E+00 9.998431421E-01 3.420139392E-05 5.390617281E-01
2.400000000E+00 9.998611045E-01 2.860400101E-05 5.166008227E-01
2.500000000E+00 9.998734341E-01 2.557857677E-05 4.959367898E-01
2.600000000E+00 9.998896185E-01 2.208837878E-05 4.768622979E-01
2.700000000E+00 9.999046480E-01 1.965617808E-05 4.592007313E-01
2.800000000E+00 9.999297790E-01 3.705085343E-05 4.428007052E-01
2.900000000E+00 9.999268815E-01 4.614681232E-05 4.275317154E-01
3.000000000E+00 9.999165548E-01 5.141437257E-05 4.132806582E-01
3.100000000E+00 9.999169259E-01 4.651129439E-05 3.999490241E-01
3.200000000E+00 9.999177349E-01 4.160562419E-05 3.874506171E-01
3.300000000E+00 9.999201209E-01 3.703926432E-05 3.757096893E-01
3.400000000E+00 9.999256014E-01 3.523575406E-05 3.646594043E-01
3.500000000E+00 9.999256163E-01 3.488498795E-05 3.542405642E-01
3.600000000E+00 9.999270593E-01 3.156941741E-05 3.444005485E-01
3.700000000E+00 9.999295028E-01 2.866299794E-05 3.350924256E-01
3.800000000E+00 9.999324393E-01 2.656092140E-05 3.262742038E-01
3.900000000E+00 9.999349726E-01 2.387364448E-05 3.179081986E-01
4.000000000E+00 9.999382328E-01 2.252424583E-05 3.099604936E-01
4.100000000E+00 9.999401598E-01 2.151060896E-05 3.024004816E-01
4.200000000E+00 9.999421715E-01 1.969707979E-05 2.952004701E-01
4.300000000E+00 9.999445408E-01 1.862714940E-05 2.883353429E-01
4.400000000E+00 9.999461969E-01 1.744611704E-05 2.817822670E-01
4.500000000E+00 9.999484382E-01 1.662862434E-05 2.755204388E-01
4.600000000E+00 9.999498530E-01 1.502607164E-05 2.695308640E-01
4.700000000E+00 9.999518686E-01 1.428781279E-05 2.637961648E-01
4.800000000E+00 9.999533766E-01 1.299361370E-05 2.583004114E-01
4.900000000E+00 9.999550150E-01 1.210597272E-05 2.530289744E-01
5.000000000E+00 9.999567271E-01 1.152409921E-05 2.479683949E-01
5.100000000E+00 9.999584075E-01 1.107660439E-05 2.431062695E-01
5.200000000E+00 9.999595968E-01 9.870601122E-06 2.384311490E-01
5.300000000E+00 9.999609759E-01 9.241390709E-06 2.339324480E-01
5.400000000E+00 9.999623763E-01 8.839546982E-06 2.296003657E-01
5.500000000E+00 9.999637320E-01 8.521031074E-06 2.254258136E-01
5.600000000E+00 9.999647982E-01 7.642134952E-06 2.214003526E-01
5.700000000E+00 9.999659510E-01 7.186592381E-06 2.175161359E-01
5.800000000E+00 9.999670685E-01 6.817420550E-06 2.137658577E-01
5.900000000E+00 9.999681753E-01 6.588280015E-06 2.101427076E-01
6.000000000E+00 9.999692273E-01 6.370500759E-06 2.066403291E-01
6.100000000E+00 9.999700951E-01 5.675447171E-06 2.032527827E-01
6.200000000E+00 9.999710158E-01 5.360898603E-06 1.999745120E-01
6.300000000E+00 9.999719066E-01 5.111302354E-06 1.968003134E-01
6.400000000E+00 9.999727776E-01 4.952822032E-06 1.937253085E-01
6.500000000E+00 9.999736088E-01 4.801599773E-06 1.907449192E-01
6.600000000E+00 9.999744025E-01 4.657199046E-06 1.878548446E-01
6.700000000E+00 9.999750990E-01 4.090804574E-06 1.850510410E-01
6.800000000E+00 9.999758133E-01 3.883410909E-06 1.823297021E-01
6.900000000E+00 9.999764973E-01 3.688710696E-06 1.796872427E-01
7.000000000E+00 9.999771541E-01 3.516030537E-06 1.771202821E-01
7.100000000E+00 9.999777931E-01 3.417684910E-06 1.746256302E-01
7.200000000E+00 9.999784057E-01 3.323408494E-06 1.722002742E-01
7.300000000E+00 9.999789933E-01 3.232979852E-06 1.698413664E-01
7.400000000E+00 9.999795472E-01 2.886615186E-06 1.675462128E-01
7.500000000E+00 9.999800867E-01 2.753188862E-06 1.653122633E-01
7.600000000E+00 9.999806052E-01 2.627199095E-06 1.631371019E-01
7.700000000E+00 9.999811037E-01 2.508149791E-06 1.610184383E-01
7.800000000E+00 9.999815833E-01 2.395583513E-06 1.589540993E-01
7.900000000E+00 9.999820456E-01 2.310837809E-06 1.569420221E-01
8.000000000E+00 9.999824917E-01 2.253427932E-06 1.549802468E-01
8.100000000E+00 9.999829213E-01 2.198131194E-06 1.530669104E-01
8.200000000E+00 9.999833353E-01 2.144845147E-06 1.512002408E-01
8.300000000E+00 9.999837345E-01 2.093473475E-06 1.493785512E-01
8.400000000E+00 9.999841443E-01 1.846237461E-06 1.476002351E-01
8.500000000E+00 9.999845193E-01 1.770467473E-06 1.458637617E-01
8.600000000E+00 9.999848811E-01 1.698442189E-06 1.441676715E-01
8.700000000E+00 9.999852304E-01 1.629939961E-06 1.425105718E-01
8.800000000E+00 9.999855677E-01 1.564754476E-06 1.408911335E-01
8.900000000E+00 9.999858936E-01 1.502693553E-06 1.393080870E-01
9.000000000E+00 9.999862086E-01 1.443578024E-06 1.377602194E-01
9.100000000E+00 9.999865109E-01 1.405609365E-06 1.362463708E-01
9.200000000E+00 9.999868025E-01 1.375218708E-06 1.347654320E-01
9.300000000E+00 9.999870848E-01 1.345803116E-06 1.333163414E-01
9.400000000E+00 9.999873582E-01 1.317321316E-06 1.318980824E-01
9.500000000E+00 9.999876229E-01 1.289734199E-06 1.305096815E-01
9.600000000E+00 9.999878794E-01 1.263004682E-06 1.291502057E-01
9.700000000E+00 9.999881715E-01 1.107549181E-06 1.278187603E-01
9.800000000E+00 9.999884174E-01 1.067727086E-06 1.265144872E-01
9.900000000E+00 9.999886558E-01 1.029622982E-06 1.252365631E-01
1.000000000E+01 9.999888869E-01 9.931481075E-07 1.239841975E-01
1.010000000E+01 9.999891111E-01 9.582190693E-07 1.227566311E-01
1.020000000E+01 9.999893285E-01 9.247574681E-07 1.215531348E-01
1.030000000E+01 9.999895394E-01 8.926895565E-07 1.203730072E-01
1.040000000E+01 9.999897437E-01 8.635234400E-07 1.192155745E-01
1.050000000E+01 9.999899381E-01 8.471536986E-07 1.180801881E-01
1.060000000E+01 9.999901271E-01 8.312450630E-07 1.169662240E-01
1.070000000E+01 9.999903107E-01 8.157803762E-07 1.158730817E-01
1.080000000E+01 9.999904893E-01 8.007432722E-07 1.148001828E-01
1.090000000E+01 9.999906630E-01 7.861181321E-07 1.137469701E-01
1.100000000E+01 9.999908320E-01 7.718900436E-07 1.127129068E-01
1.110000000E+01 9.999910521E-01 6.840969514E-07 1.116974752E-01
1.120000000E+01 9.999912183E-01 6.624687739E-07 1.107001763E-01
1.130000000E+01 9.999913799E-01 6.416602581E-07 1.097205287E-01
1.140000000E+01 9.999915371E-01 6.216341825E-07 1.087580679E-01
1.150000000E+01 9.999916900E-01 6.023553054E-07 1.078123456E-01
1.160000000E+01 9.999918389E-01 5.837902442E-07 1.068829288E-01
1.170000000E+01 9.999919837E-01 5.659073627E-07 1.059693995E-01
1.180000000E+01 9.999921248E-01 5.486766665E-07 1.050713538E-01
1.190000000E+01 9.999922586E-01 5.368811468E-07 1.041884012E-01
1.200000000E+01 9.999923871E-01 5.279704111E-07 1.033201645E-01
1.210000000E+01 9.999925124E-01 5.192796886E-07 1.024662789E-01
1.220000000E+01 9.999926346E-01 5.108017952E-07 1.016263914E-01
1.230000000E+01 9.999928003E-01 4.728820504E-07 1.008001605E-01
1.240000000E+01 9.999929253E-01 4.592980663E-07 9.998725601E-02
1.250000000E+01 9.999930471E-01 4.461807771E-07 9.918735797E-02
1.260000000E+01 9.999931658E-01 4.335109720E-07 9.840015671E-02
1.270000000E+01 9.999932815E-01 4.212703669E-07 9.762535233E-02
1.280000000E+01 9.999933931E-01 4.102149136E-07 9.686265426E-02
1.290000000E+01 9.999934952E-01 4.038796433E-07 9.611178098E-02
1.300000000E+01 9.999935949E-01 3.976900085E-07 9.537245958E-02
1.310000000E+01 9.999937375E-01 3.768351037E-07 9.464442554E-02
1.320000000E+01 9.999938457E-01 3.666597399E-07 9.392742232E-02
1.330000000E+01 9.999939512E-01 3.568131132E-07 9.322120110E-02
1.340000000E+01 9.999940529E-01 3.476705096E-07 9.252552049E-02
1.350000000E+01 9.999941406E-01 3.425389120E-07 9.184014627E-02
1.360000000E+01 9.999942761E-01 3.292652826E-07 9.116485107E-02
1.370000000E+01 9.999943822E-01 3.206761541E-07 9.049941420E-02
1.380000000E+01 9.999944763E-01 3.138885550E-07 8.984362135E-02
1.390000000E+01 9.999946175E-01 3.074233678E-07 8.919726436E-02
1.400000000E+01 9.999947544E-01 3.132263393E-07 8.856014104E-02
1.410000000E+01 9.999948928E-01 3.432378516E-07 8.793205493E-02
1.420000000E+01 9.999950196E-01 4.654283053E-07 8.731281511E-02
1.430000000E+01 9.999950636E-01 5.746623345E-07 8.670223598E-02
1.440000000E+01 9.999950574E-01 6.341519377E-07 8.610013712E-02
1.450000000E+01 9.999950601E-01 6.367829625E-07 8.550634307E-02
1.460000000E+01 9.999951077E-01 6.315386829E-07 8.492068319E-02
1.470000000E+01 9.999951140E-01 6.133664254E-07 8.434299147E-02
1.480000000E+01 9.999951773E-01 6.047063188E-07 8.377310639E-02
1.490000000E+01 9.999952066E-01 5.838426361E-07 8.321087078E-02
1.500000000E+01 9.999952526E-01 5.696741965E-07 8.265613164E-02
1.510000000E+01 9.999953100E-01 5.602408365E-07 8.210874004E-02
1.520000000E+01 9.999953715E-01 5.528934952E-07 8.156855096E-02
1.530000000E+01 9.999954103E-01 5.295689805E-07 8.103542318E-02
1.540000000E+01 9.999954620E-01 5.169509636E-07 8.050921913E-02
1.550000000E+01 9.999955129E-01 5.046868404E-07 7.998980481E-02
1.560000000E+01 9.999955696E-01 4.977844585E-07 7.947704965E-02
1.570000000E+01 9.999956259E-01 4.914634501E-07 7.897082641E-02
1.580000000E+01 9.999956767E-01 4.701936586E-07 7.847101105E-02
1.590000000E+01 9.999957294E-01 4.593238848E-07 7.797748268E-02
1.600000000E+01 9.999957812E-01 4.487496723E-07 7.749012341E-02
1.610000000E+01 9.999958333E-01 4.427194492E-07 7.700881830E-02
1.620000000E+01 9.999958932E-01 4.285485137E-07 7.653345522E-02
1.630000000E+01 9.999959478E-01 4.188539859E-07 7.606392482E-02
1.640000000E+01 9.999960010E-01 4.097429141E-07 7.560012040E-02
1.650000000E+01 9.999960664E-01 4.040295204E-07 7.514193785E-02
1.660000000E+01 9.999961292E-01 3.984852040E-07 7.468927558E-02
1.670000000E+01 9.999961972E-01 4.097355553E-07 7.424203441E-02
1.680000000E+01 9.999962512E-01 4.118256993E-07 7.380011753E-02
1.690000000E+01 9.999963037E-01 4.510805861E-07 7.336343045E-02
1.700000000E+01 9.999963232E-01 4.798486674E-07 7.293188086E-02
1.710000000E+01 9.999963620E-01 4.800663894E-07 7.250537863E-02
1.720000000E+01 9.999963751E-01 4.824601794E-07 7.208383573E-02
1.730000000E+01 9.999964164E-01 4.770210988E-07 7.166716616E-02
1.740000000E+01 9.999964480E-01 4.857867887E-07 7.125528590E-02
1.750000000E+01 9.999964868E-01 4.828053049E-07 7.084811283E-02
1.760000000E+01 9.999965027E-01 4.975600911E-07 7.044556674E-02
1.770000000E+01 9.999965398E-01 4.939724657E-07 7.004756919E-02
1.780000000E+01 9.999965475E-01 4.882021434E-07 6.965404352E-02
1.790000000E+01 9.999965700E-01 4.826414640E-07 6.926491478E-02
1.800000000E+01 9.999966080E-01 4.772936774E-07 6.888010970E-02
1.810000000E+01 9.999966259E-01 4.641176294E-07 6.849955661E-02
1.820000000E+01 9.999966536E-01 4.552422339E-07 6.812318542E-02
1.830000000E+01 9.999966844E-01 4.479952447E-07 6.775092757E-02
1.840000000E+01 9.999967204E-01 4.431389636E-07 6.738271601E-02
1.850000000E+01 9.999967557E-01 4.383612199E-07 6.701848511E-02
1.860000000E+01 9.999967705E-01 4.216464849E-07 6.665817068E-02
1.870000000E+01 9.999967992E-01 4.137198188E-07 6.630170987E-02
1.880000000E+01 9.999968276E-01 4.059735902E-07 6.594904120E-02
1.890000000E+01 9.999968592E-01 4.005730985E-07 6.560010448E-02
1.900000000E+01 9.999968922E-01 3.963676358E-07 6.525484077E-02
1.910000000E+01 9.999969246E-01 3.922280544E-07 6.491319239E-02
1.920000000E+01 9.999969566E-01 3.881529853E-07 6.457510284E-02
1.930000000E+01 9.999969705E-01 3.701025714E-07 6.424051682E-02
1.940000000E+01 9.999969980E-01 3.634033549E-07 6.390938013E-02
1.950000000E+01 9.999970252E-01 3.568511135E-07 6.358163972E-02
1.960000000E+01 9.999970520E-01 3.504419608E-07 6.325724360E-02
1.970000000E+01 9.999970812E-01 3.463395586E-07 6.293614084E-02
1.980000000E+01 9.999971106E-01 3.428500135E-07 6.261828154E-02
1.990000000E+01 9.999971396E-01 3.394129423E-07 6.230361681E-02
2.000000000E+01 9.999971681E-01 3.360272982E-07 6.199209873E-02
2.010000000E+01 9.999971843E-01 3.203703342E-07 6.168368033E-02
2.020000000E+01 9.999972098E-01 3.147361147E-07 6.137831557E-02
2.030000000E+01 9.999972349E-01 3.092211890E-07 6.107595934E-02
2.040000000E+01 9.999972596E-01 3.038225184E-07 6.077656738E-02
2.050000000E+01 9.999972853E-01 2.998431358E-07 6.048009632E-02
2.060000000E+01 9.999973116E-01 2.969391031E-07 6.018650362E-02
2.070000000E+01 9.999973375E-01 2.940770562E-07 5.989574756E-02
2.080000000E+01 9.999973631E-01 2.912561894E-07 5.960778724E-02
2.090000000E+01 9.999973882E-01 2.884757167E-07 5.932258252E-02
2.100000000E+01 9.999974043E-01 2.739777500E-07 5.904009403E-02
2.110000000E+01 9.999974273E-01 2.693582646E-07 5.876028316E-02
2.120000000E+01 9.999974500E-01 2.648325003E-07 5.848311201E-02
2.130000000E+01 9.999974725E-01 2.603981696E-07 5.820854341E-02
2.140000000E+01 9.999974946E-01 2.560530507E-07 5.793654087E-02
2.150000000E+01 9.999975166E-01 2.519762284E-07 5.766706859E-02
2.160000000E+01 9.999975395E-01 2.496485159E-07 5.740009142E-02
2.170000000E+01 9.999975621E-01 2.473529096E-07 5.713557487E-02
2.180000000E+01 9.999975845E-01 2.450888216E-07 5.687348507E-02
2.190000000E+01 9.999976065E-01 2.428556777E-07 5.661378879E-02
2.200000000E+01 9.999976282E-01 2.406529165E-07 5.635645339E-02
2.210000000E+01 9.999976435E-01 2.282587599E-07 5.610144681E-02
2.220000000E+01 9.999976637E-01 2.245986760E-07 5.584873759E-02
2.230000000E+01 9.999976837E-01 2.210092119E-07 5.559829482E-02
2.240000000E+01 9.999977034E-01 2.174887281E-07 5.535008815E-02
2.250000000E+01 9.999977228E-01 2.140356300E-07 5.510408776E-02
2.260000000E+01 9.999977422E-01 2.109144513E-07 5.486026436E-02
2.270000000E+01 9.999977621E-01 2.090602674E-07 5.461858919E-02
2.280000000E+01 9.999977816E-01 2.072304270E-07 5.437903397E-02
2.290000000E+01 9.999978010E-01 2.054245059E-07 5.414157094E-02
2.300000000E+01 9.999978201E-01 2.036420892E-07 5.390617281E-02
2.310000000E+01 9.999978389E-01 2.018827705E-07 5.367281275E-02
2.320000000E+01 9.999978575E-01 2.001461526E-07 5.344146442E-02
2.330000000E+01 9.999978713E-01 1.889029811E-07 5.321210191E-02
2.340000000E+01 9.999978888E-01 1.860217517E-07 5.298469977E-02
2.350000000E+01 9.999979061E-01 1.831933367E-07 5.275923296E-02
2.360000000E+01 9.999979233E-01 1.804165714E-07 5.253567689E-02
2.370000000E+01 9.999979402E-01 1.776903216E-07 5.231400737E-02
2.380000000E+01 9.999979569E-01 1.750134822E-07 5.209420061E-02
2.390000000E+01 9.999979734E-01 1.724278775E-07 5.187623325E-02
2.400000000E+01 9.999979902E-01 1.709939721E-07 5.166008227E-02
2.410000000E+01 9.999980069E-01 1.695778790E-07 5.144572509E-02
2.420000000E+01 9.999980233E-01 1.681793046E-07 5.123313945E-02
2.430000000E+01 9.999980396E-01 1.667979609E-07 5.102230348E-02
2.440000000E+01 9.999980556E-01 1.654335661E-07 5.081319568E-02
2.450000000E+01 9.999980714E-01 1.640858441E-07 5.060579488E-02
2.460000000E+01 9.999980843E-01 1.553589240E-07 5.040008027E-02
2.470000000E+01 9.999980994E-01 1.530949438E-07 5.019603136E-02
2.480000000E+01 9.999981143E-01 1.508704218E-07 4.999362801E-02
2.490000000E+01 9.999981291E-01 1.486845319E-07 4.979285038E-02
2.500000000E+01 9.999981436E-01 1.465364682E-07 4.959367898E-02
2.510000000E+01 9.999981580E-01 1.444254445E-07 4.939609460E-02
2.520000000E+01 9.999981725E-01 1.428882429E-07 4.920007836E-02
2.530000000E+01 9.999981869E-01 1.417609239E-07 4.900561164E-02
2.540000000E+01 9.999982011E-01 1.406468935E-07 4.881267616E-02
2.550000000E+01 9.999982152E-01 1.395459435E-07 4.862125391E-02
2.560000000E+01 9.999982291E-01 1.384578702E-07 4.843132713E-02
2.570000000E+01 9.999982429E-01 1.373824733E-07 4.824287839E-02
2.580000000E+01 9.999982565E-01 1.363195568E-07 4.805589049E-02
2.590000000E+01 9.999982699E-01 1.352689283E-07 4.787034651E-02
2.600000000E+01 9.999982812E-01 1.272363973E-07 4.768622979E-02
2.610000000E+01 9.999982941E-01 1.254839055E-07 4.750352393E-02
2.620000000E+01 9.999983069E-01 1.237603152E-07 4.732221277E-02
2.630000000E+01 9.999983195E-01 1.220650534E-07 4.714228040E-02
2.640000000E+01 9.999983320E-01 1.203975605E-07 4.696371116E-02
2.650000000E+01 9.999983444E-01 1.187572901E-07 4.678648961E-02
2.660000000E+01 9.999983566E-01 1.171437083E-07 4.661060055E-02
2.670000000E+01 9.999983687E-01 1.155562933E-07 4.643602901E-02
2.680000000E+01 9.999983807E-01 1.142455515E-07 4.626276025E-02
2.690000000E+01 9.999983927E-01 1.133977210E-07 4.609077972E-02
2.700000000E+01 9.999984046E-01 1.125592934E-07 4.592007313E-02
2.710000000E+01 9.999984164E-01 1.117301301E-07 4.575062637E-02
2.720000000E+01 9.999984280E-01 1.109100953E-07 4.558242554E-02
2.730000000E+01 9.999984395E-01 1.100990552E-07 4.541545694E-02
2.740000000E+01 9.999984509E-01 1.092968790E-07 4.524970710E-02
2.750000000E+01 9.999984621E-01 1.085034379E-07 4.508516271E-02
2.760000000E+01 9.999984732E-01 1.077186054E-07 4.492181067E-02
2.770000000E+01 9.999984830E-01 1.011763072E-07 4.475963807E-02
2.780000000E+01 9.999984938E-01 9.986085551E-08 4.459863218E-02
2.790000000E+01 9.999985045E-01 9.856582110E-08 4.443878045E-02
2.800000000E+01 9.999985150E-01 9.729082331E-08 4.428007052E-02
2.810000000E+01 9.999985254E-01 9.603548986E-08 4.412249020E-02
2.820000000E+01 9.999985358E-01 9.479945657E-08 4.396602747E-02
2.830000000E+01 9.999985460E-01 9.358236720E-08 4.381067048E-02
2.840000000E+01 9.999985561E-01 9.238387326E-08 4.365640756E-02
2.850000000E+01 9.999985661E-01 9.120363377E-08 4.350322718E-02
2.860000000E+01 9.999985761E-01 9.034749642E-08 4.335111799E-02
2.870000000E+01 9.999985860E-01 8.971899400E-08 4.320006880E-02
2.880000000E+01 9.999985958E-01 8.909702711E-08 4.305006856E-02
2.890000000E+01 9.999986055E-01 8.848150545E-08 4.290110639E-02
2.900000000E+01 9.999986151E-01 8.787234027E-08 4.275317154E-02
2.910000000E+01 9.999986246E-01 8.726944435E-08 4.260625342E-02
2.920000000E+01 9.999986340E-01 8.667273195E-08 4.246034160E-02
2.930000000E+01 9.999986433E-01 8.608211880E-08 4.231542575E-02
2.940000000E+01 9.999986525E-01 8.549752206E-08 4.217149573E-02
2.950000000E+01 9.999986611E-01 8.047821793E-08 4.202854151E-02
2.960000000E+01 9.999986701E-01 7.949157499E-08 4.188655320E-02
2.970000000E+01 9.999986789E-01 7.851934148E-08 4.174552103E-02
2.980000000E+01 9.999986877E-01 7.756126474E-08 4.160543539E-02
2.990000000E+01 9.999986965E-01 7.661709731E-08 4.146628678E-02
3.000000000E+01 9.999987051E-01 7.568659685E-08 4.132806582E-02
3.010000000E+01 9.999987136E-01 7.476952595E-08 4.119076328E-02
3.020000000E+01 9.999987221E-01 7.386565206E-08 4.105437002E-02
3.030000000E+01 9.999987304E-01 7.297474736E-08 4.091887705E-02
3.040000000E+01 9.999987387E-01 7.209658867E-08 4.078427548E-02
3.050000000E+01 9.999987469E-01 7.124731104E-08 4.065055654E-02
3.060000000E+01 9.999987551E-01 7.078240324E-08 4.051771159E-02
3.070000000E+01 9.999987632E-01 7.032203111E-08 4.038573207E-02
3.080000000E+01 9.999987712E-01 6.986613583E-08 4.025460956E-02
3.090000000E+01 9.999987792E-01 6.941465956E-08 4.012433575E-02
3.100000000E+01 9.999987870E-01 6.896754537E-08 3.999490241E-02
3.110000000E+01 9.999987948E-01 6.852473723E-08 3.986630143E-02
3.120000000E+01 9.999988025E-01 6.808618004E-08 3.973852483E-02
3.130000000E+01 9.999988102E-01 6.765181955E-08 3.961156468E-02
3.140000000E+01 9.999988177E-01 6.722160240E-08 3.948541320E-02
3.150000000E+01 9.999988252E-01 6.679547604E-08 3.936006269E-02
3.160000000E+01 9.999988327E-01 6.637338878E-08 3.923550552E-02
3.170000000E+01 9.999988400E-01 6.595528973E-08 3.911173421E-02
