# 04/03/2022 
# Density retrieved from www.chemicool.com/densities.html 
# Includes the real (n) and complex (k) part of the  refractive index. 
# Element, B  (Z = 5) 
# Nominal density, g cm-3 =  2.34 
#    E [keV]      n       k    Wavelength [nm] 
1.000000000E+00 9.995282428E-01 3.006865684E-05 1.239841975E+00
1.100000000E+00 9.996122365E-01 2.000987912E-05 1.127129068E+00
1.200000000E+00 9.996756391E-01 1.395289846E-05 1.033201645E+00
1.300000000E+00 9.997245800E-01 1.020442982E-05 9.537245958E-01
1.400000000E+00 9.997631307E-01 7.766858526E-06 8.856014104E-01
1.500000000E+00 9.997943159E-01 5.792644303E-06 8.265613164E-01
1.600000000E+00 9.998194169E-01 4.803157832E-06 7.749012341E-01
1.700000000E+00 9.998405810E-01 3.523171587E-06 7.293188086E-01
1.800000000E+00 9.998579104E-01 2.997101356E-06 6.888010970E-01
1.900000000E+00 9.998728300E-01 2.259395987E-06 6.525484077E-01
2.000000000E+00 9.998853164E-01 1.933625042E-06 6.199209873E-01
2.100000000E+00 9.998961955E-01 1.512556871E-06 5.904009403E-01
2.200000000E+00 9.999055170E-01 1.267874479E-06 5.635645339E-01
2.300000000E+00 9.999135543E-01 1.160021263E-06 5.390617281E-01
2.400000000E+00 9.999207884E-01 8.817466954E-07 5.166008227E-01
2.500000000E+00 9.999270308E-01 7.798033980E-07 4.959367898E-01
2.600000000E+00 9.999326233E-01 6.378899446E-07 4.768622979E-01
2.700000000E+00 9.999375696E-01 5.459783779E-07 4.592007313E-01
2.800000000E+00 9.999419592E-01 4.982887161E-07 4.428007052E-01
2.900000000E+00 9.999459561E-01 4.090941886E-07 4.275317154E-01
3.000000000E+00 9.999495293E-01 3.556825067E-07 4.132806582E-01
3.100000000E+00 9.999527446E-01 3.228939773E-07 3.999490241E-01
3.200000000E+00 9.999556519E-01 3.030284299E-07 3.874506171E-01
3.300000000E+00 9.999583522E-01 2.410611576E-07 3.757096893E-01
3.400000000E+00 9.999607835E-01 2.126926695E-07 3.646594043E-01
3.500000000E+00 9.999629931E-01 2.001875335E-07 3.542405642E-01
3.600000000E+00 9.999650474E-01 1.686840755E-07 3.444005485E-01
3.700000000E+00 9.999669231E-01 1.505644436E-07 3.350924256E-01
3.800000000E+00 9.999686509E-01 1.352527101E-07 3.262742038E-01
3.900000000E+00 9.999702380E-01 1.284055973E-07 3.179081986E-01
4.000000000E+00 9.999717254E-01 1.092224425E-07 3.099604936E-01
4.100000000E+00 9.999730953E-01 9.854594727E-08 3.024004816E-01
4.200000000E+00 9.999743681E-01 8.899597971E-08 2.952004701E-01
4.300000000E+00 9.999755478E-01 8.390639138E-08 2.883353429E-01
4.400000000E+00 9.999766467E-01 8.013580458E-08 2.817822670E-01
4.500000000E+00 9.999776873E-01 6.701032783E-08 2.755204388E-01
4.600000000E+00 9.999786514E-01 6.109502482E-08 2.695308640E-01
4.700000000E+00 9.999795537E-01 5.614727154E-08 2.637961648E-01
4.800000000E+00 9.999803968E-01 5.383217137E-08 2.583004114E-01
4.900000000E+00 9.999811888E-01 5.165736062E-08 2.530289744E-01
5.000000000E+00 9.999819437E-01 4.321137230E-08 2.479683949E-01
5.100000000E+00 9.999826476E-01 3.973865838E-08 2.431062695E-01
5.200000000E+00 9.999833112E-01 3.658732225E-08 2.384311490E-01
5.300000000E+00 9.999839350E-01 3.521969361E-08 2.339324480E-01
5.400000000E+00 9.999845245E-01 3.392733860E-08 2.296003657E-01
5.500000000E+00 9.999850882E-01 2.902411360E-08 2.254258136E-01
5.600000000E+00 9.999856179E-01 2.690314723E-08 2.214003526E-01
5.700000000E+00 9.999861198E-01 2.494888741E-08 2.175161359E-01
5.800000000E+00 9.999865955E-01 2.334069134E-08 2.137658577E-01
5.900000000E+00 9.999870461E-01 2.255618663E-08 2.101427076E-01
6.000000000E+00 9.999874743E-01 2.181057935E-08 2.066403291E-01
6.100000000E+00 9.999878856E-01 1.880965326E-08 2.032527827E-01
6.200000000E+00 9.999882744E-01 1.756313326E-08 1.999745120E-01
6.300000000E+00 9.999886447E-01 1.640547154E-08 1.968003134E-01
6.400000000E+00 9.999889978E-01 1.532932838E-08 1.937253085E-01
6.500000000E+00 9.999893340E-01 1.469282999E-08 1.907449192E-01
6.600000000E+00 9.999896548E-01 1.425096573E-08 1.878548446E-01
6.700000000E+00 9.999899613E-01 1.382873841E-08 1.850510410E-01
6.800000000E+00 9.999902572E-01 1.190718380E-08 1.823297021E-01
6.900000000E+00 9.999905382E-01 1.119193161E-08 1.796872427E-01
7.000000000E+00 9.999908073E-01 1.052274317E-08 1.771202821E-01
7.100000000E+00 9.999910650E-01 9.896179646E-09 1.746256302E-01
7.200000000E+00 9.999913116E-01 9.545548289E-09 1.722002742E-01
7.300000000E+00 9.999915481E-01 9.285817664E-09 1.698413664E-01
7.400000000E+00 9.999917749E-01 9.036545349E-09 1.675462128E-01
7.500000000E+00 9.999919946E-01 7.873784374E-09 1.653122633E-01
7.600000000E+00 9.999922043E-01 7.443468992E-09 1.631371019E-01
7.700000000E+00 9.999924059E-01 7.038386504E-09 1.610184383E-01
7.800000000E+00 9.999925998E-01 6.656819837E-09 1.589540993E-01
7.900000000E+00 9.999927862E-01 6.368302795E-09 1.569420221E-01
8.000000000E+00 9.999929654E-01 6.210090273E-09 1.549802468E-01
8.100000000E+00 9.999931380E-01 6.057701226E-09 1.530669104E-01
8.200000000E+00 9.999933044E-01 5.910853323E-09 1.512002408E-01
8.300000000E+00 9.999934661E-01 5.127777117E-09 1.493785512E-01
8.400000000E+00 9.999936210E-01 4.872351834E-09 1.476002351E-01
8.500000000E+00 9.999937704E-01 4.630537023E-09 1.458637617E-01
8.600000000E+00 9.999939147E-01 4.401490869E-09 1.441676715E-01
8.700000000E+00 9.999940541E-01 4.184431664E-09 1.425105718E-01
8.800000000E+00 9.999941885E-01 4.073712413E-09 1.408911335E-01
8.900000000E+00 9.999943183E-01 3.982682606E-09 1.393080870E-01
9.000000000E+00 9.999944439E-01 3.894670238E-09 1.377602194E-01
9.100000000E+00 9.999945653E-01 3.809543403E-09 1.362463708E-01
9.200000000E+00 9.999946837E-01 3.311989257E-09 1.347654320E-01
9.300000000E+00 9.999947976E-01 3.162746563E-09 1.333163414E-01
9.400000000E+00 9.999949079E-01 3.020703967E-09 1.318980824E-01
9.500000000E+00 9.999950147E-01 2.885457857E-09 1.305096815E-01
9.600000000E+00 9.999951181E-01 2.756630765E-09 1.291502057E-01
9.700000000E+00 9.999952183E-01 2.670942977E-09 1.278187603E-01
9.800000000E+00 9.999953154E-01 2.616712044E-09 1.265144872E-01
9.900000000E+00 9.999954096E-01 2.564116158E-09 1.252365631E-01
1.000000000E+01 9.999955009E-01 2.513090247E-09 1.239841975E-01
1.010000000E+01 9.999955896E-01 2.463572441E-09 1.227566311E-01
1.020000000E+01 9.999956763E-01 2.135983419E-09 1.215531348E-01
1.030000000E+01 9.999957599E-01 2.048568715E-09 1.203730072E-01
1.040000000E+01 9.999958412E-01 1.964975322E-09 1.192155745E-01
1.050000000E+01 9.999959201E-01 1.885009096E-09 1.180801881E-01
1.060000000E+01 9.999959968E-01 1.808487299E-09 1.169662240E-01
1.070000000E+01 9.999960714E-01 1.739376412E-09 1.158730817E-01
1.080000000E+01 9.999961438E-01 1.707314861E-09 1.148001828E-01
1.090000000E+01 9.999962142E-01 1.676131684E-09 1.137469701E-01
1.100000000E+01 9.999962827E-01 1.645795086E-09 1.127129068E-01
1.110000000E+01 9.999963494E-01 1.616274697E-09 1.116974752E-01
1.120000000E+01 9.999964143E-01 1.587541497E-09 1.107001763E-01
1.130000000E+01 9.999964779E-01 1.379454151E-09 1.097205287E-01
1.140000000E+01 9.999965395E-01 1.328180445E-09 1.087580679E-01
1.150000000E+01 9.999965995E-01 1.278938296E-09 1.078123456E-01
1.160000000E+01 9.999966579E-01 1.231634134E-09 1.068829288E-01
1.170000000E+01 9.999967149E-01 1.186179374E-09 1.059693995E-01
1.180000000E+01 9.999967704E-01 1.142490115E-09 1.050713538E-01
1.190000000E+01 9.999968244E-01 1.120764177E-09 1.041884012E-01
1.200000000E+01 9.999968771E-01 1.102162605E-09 1.033201645E-01
1.210000000E+01 9.999969285E-01 1.084020320E-09 1.024662789E-01
1.220000000E+01 9.999969787E-01 1.066322326E-09 1.016263914E-01
1.230000000E+01 9.999970276E-01 1.049054234E-09 1.008001605E-01
1.240000000E+01 9.999970754E-01 1.032202231E-09 9.998725601E-02
1.250000000E+01 9.999971223E-01 8.962981274E-10 9.918735797E-02
1.260000000E+01 9.999971678E-01 8.661254180E-10 9.840015671E-02
1.270000000E+01 9.999972123E-01 8.370361980E-10 9.762535233E-02
1.280000000E+01 9.999972557E-01 8.089852034E-10 9.686265426E-02
1.290000000E+01 9.999972981E-01 7.819293602E-10 9.611178098E-02
1.300000000E+01 9.999973396E-01 7.558276629E-10 9.537245958E-02
1.310000000E+01 9.999973801E-01 7.357312942E-10 9.464442554E-02
1.320000000E+01 9.999974196E-01 7.246260755E-10 9.392742232E-02
1.330000000E+01 9.999974583E-01 7.137704076E-10 9.322120110E-02
1.340000000E+01 9.999974961E-01 7.031568690E-10 9.252552049E-02
1.350000000E+01 9.999975330E-01 6.927783122E-10 9.184014627E-02
1.360000000E+01 9.999975692E-01 6.826278514E-10 9.116485107E-02
1.370000000E+01 9.999976045E-01 6.726988513E-10 9.049941420E-02
1.380000000E+01 9.999976393E-01 5.866728167E-10 8.984362135E-02
1.390000000E+01 9.999976732E-01 5.686753487E-10 8.919726436E-02
1.400000000E+01 9.999977063E-01 5.512653934E-10 8.856014104E-02
1.410000000E+01 9.999977388E-01 5.344206389E-10 8.793205493E-02
1.420000000E+01 9.999977705E-01 5.181197547E-10 8.731281511E-02
1.430000000E+01 9.999978016E-01 5.023423426E-10 8.670223598E-02
1.440000000E+01 9.999978321E-01 4.870688902E-10 8.610013712E-02
1.450000000E+01 9.999978619E-01 4.747380960E-10 8.550634307E-02
1.460000000E+01 9.999978911E-01 4.682571059E-10 8.492068319E-02
1.470000000E+01 9.999979197E-01 4.619079304E-10 8.434299147E-02
1.480000000E+01 9.999979477E-01 4.556870192E-10 8.377310639E-02
1.490000000E+01 9.999979751E-01 4.495909404E-10 8.321087078E-02
1.500000000E+01 9.999980020E-01 4.436163764E-10 8.265613164E-02
1.510000000E+01 9.999980284E-01 4.377601188E-10 8.210874004E-02
1.520000000E+01 9.999980544E-01 3.870569040E-10 8.156855096E-02
1.530000000E+01 9.999980798E-01 3.762689109E-10 8.103542318E-02
1.540000000E+01 9.999981046E-01 3.658012187E-10 8.050921913E-02
1.550000000E+01 9.999981290E-01 3.556427558E-10 7.998980481E-02
1.560000000E+01 9.999981530E-01 3.457828943E-10 7.947704965E-02
1.570000000E+01 9.999981764E-01 3.362114295E-10 7.897082641E-02
1.580000000E+01 9.999981995E-01 3.269185609E-10 7.847101105E-02
1.590000000E+01 9.999982220E-01 3.178948737E-10 7.797748268E-02
1.600000000E+01 9.999982442E-01 3.138157895E-10 7.749012341E-02
1.610000000E+01 9.999982659E-01 3.099295634E-10 7.700881830E-02
1.620000000E+01 9.999982873E-01 3.061150820E-10 7.653345522E-02
1.630000000E+01 9.999983082E-01 3.023705902E-10 7.606392482E-02
1.640000000E+01 9.999983288E-01 2.986943862E-10 7.560012040E-02
1.650000000E+01 9.999983490E-01 2.950848195E-10 7.514193785E-02
1.660000000E+01 9.999983688E-01 2.915402893E-10 7.468927558E-02
1.670000000E+01 9.999983884E-01 2.582250247E-10 7.424203441E-02
1.680000000E+01 9.999984075E-01 2.516612655E-10 7.380011753E-02
1.690000000E+01 9.999984263E-01 2.452752370E-10 7.336343045E-02
1.700000000E+01 9.999984448E-01 2.390613338E-10 7.293188086E-02
1.710000000E+01 9.999984629E-01 2.330141558E-10 7.250537863E-02
1.720000000E+01 9.999984808E-01 2.271284990E-10 7.208383573E-02
1.730000000E+01 9.999984983E-01 2.213993480E-10 7.166716616E-02
1.740000000E+01 9.999985155E-01 2.164698327E-10 7.125528590E-02
1.750000000E+01 9.999985324E-01 2.140029602E-10 7.084811283E-02
1.760000000E+01 9.999985491E-01 2.115780171E-10 7.044556674E-02
1.770000000E+01 9.999985654E-01 2.091940584E-10 7.004756919E-02
1.780000000E+01 9.999985815E-01 2.068501659E-10 6.965404352E-02
1.790000000E+01 9.999985973E-01 2.045454467E-10 6.926491478E-02
1.800000000E+01 9.999986128E-01 2.022790326E-10 6.888010970E-02
1.810000000E+01 9.999986282E-01 1.825249468E-10 6.849955661E-02
1.820000000E+01 9.999986432E-01 1.782304654E-10 6.812318542E-02
1.830000000E+01 9.999986580E-01 1.740434956E-10 6.775092757E-02
1.840000000E+01 9.999986726E-01 1.699609022E-10 6.738271601E-02
1.850000000E+01 9.999986869E-01 1.659796561E-10 6.701848511E-02
1.860000000E+01 9.999987010E-01 1.620968301E-10 6.665817068E-02
1.870000000E+01 9.999987148E-01 1.583095951E-10 6.630170987E-02
1.880000000E+01 9.999987285E-01 1.546152164E-10 6.594904120E-02
1.890000000E+01 9.999987419E-01 1.518006640E-10 6.560010448E-02
1.900000000E+01 9.999987551E-01 1.502069673E-10 6.525484077E-02
1.910000000E+01 9.999987681E-01 1.486382369E-10 6.491319239E-02
1.920000000E+01 9.999987809E-01 1.470939540E-10 6.457510284E-02
1.930000000E+01 9.999987935E-01 1.455736132E-10 6.424051682E-02
1.940000000E+01 9.999988059E-01 1.440767223E-10 6.390938013E-02
1.950000000E+01 9.999988182E-01 1.322056206E-10 6.358163972E-02
1.960000000E+01 9.999988302E-01 1.293131152E-10 6.325724360E-02
1.970000000E+01 9.999988420E-01 1.264879243E-10 6.293614084E-02
1.980000000E+01 9.999988537E-01 1.237282228E-10 6.261828154E-02
1.990000000E+01 9.999988652E-01 1.210322428E-10 6.230361681E-02
2.000000000E+01 9.999988765E-01 1.183982721E-10 6.199209873E-02
2.010000000E+01 9.999988877E-01 1.158246516E-10 6.168368033E-02
2.020000000E+01 9.999988987E-01 1.141144849E-10 6.137831557E-02
2.030000000E+01 9.999989095E-01 1.129929734E-10 6.107595934E-02
2.040000000E+01 9.999989202E-01 1.118879143E-10 6.077656738E-02
2.050000000E+01 9.999989307E-01 1.107989873E-10 6.048009632E-02
2.060000000E+01 9.999989410E-01 1.097258800E-10 6.018650362E-02
2.070000000E+01 9.999989512E-01 1.086682873E-10 5.989574756E-02
2.080000000E+01 9.999989613E-01 1.076259117E-10 5.960778724E-02
2.090000000E+01 9.999989712E-01 9.798254415E-11 5.932258252E-02
2.100000000E+01 9.999989810E-01 9.597294150E-11 5.904009403E-02
2.110000000E+01 9.999989907E-01 9.400707124E-11 5.876028316E-02
2.120000000E+01 9.999990002E-01 9.208382488E-11 5.848311201E-02
2.130000000E+01 9.999990095E-01 9.020212657E-11 5.820854341E-02
2.140000000E+01 9.999990188E-01 8.836093194E-11 5.793654087E-02
2.150000000E+01 9.999990279E-01 8.655922710E-11 5.766706859E-02
2.160000000E+01 9.999990369E-01 8.555527093E-11 5.740009142E-02
2.170000000E+01 9.999990457E-01 8.476855998E-11 5.713557487E-02
2.180000000E+01 9.999990545E-01 8.399265047E-11 5.687348507E-02
2.190000000E+01 9.999990631E-01 8.322734557E-11 5.661378879E-02
2.200000000E+01 9.999990716E-01 8.247245291E-11 5.635645339E-02
2.210000000E+01 9.999990800E-01 7.687789943E-11 5.610144681E-02
2.220000000E+01 9.999990882E-01 7.538196919E-11 5.584873759E-02
2.230000000E+01 9.999990964E-01 7.391687395E-11 5.559829482E-02
2.240000000E+01 9.999991045E-01 7.248187353E-11 5.535008815E-02
2.250000000E+01 9.999991124E-01 7.107624838E-11 5.510408776E-02
2.260000000E+01 9.999991202E-01 7.039776608E-11 5.486026436E-02
2.270000000E+01 9.999991280E-01 6.977888763E-11 5.461858919E-02
2.280000000E+01 9.999991356E-01 6.916813443E-11 5.437903397E-02
2.290000000E+01 9.999991431E-01 6.856536489E-11 5.414157094E-02
2.300000000E+01 9.999991506E-01 6.467170079E-11 5.390617281E-02
2.310000000E+01 9.999991579E-01 6.346699694E-11 5.367281275E-02
2.320000000E+01 9.999991652E-01 6.228613695E-11 5.344146442E-02
2.330000000E+01 9.999991723E-01 6.112857080E-11 5.321210191E-02
2.340000000E+01 9.999991794E-01 5.999376322E-11 5.298469977E-02
2.350000000E+01 9.999991864E-01 5.932338648E-11 5.275923296E-02
2.360000000E+01 9.999991932E-01 5.882171105E-11 5.253567689E-02
2.370000000E+01 9.999992000E-01 5.832637253E-11 5.231400737E-02
2.380000000E+01 9.999992067E-01 5.577263218E-11 5.209420061E-02
2.390000000E+01 9.999992134E-01 5.476945227E-11 5.187623325E-02
2.400000000E+01 9.999992199E-01 5.387546520E-11 5.166008227E-02
2.410000000E+01 9.999992264E-01 5.342929350E-11 5.144572509E-02
2.420000000E+01 9.999992328E-01 5.298864141E-11 5.123313945E-02
2.430000000E+01 9.999992391E-01 5.097147827E-11 5.102230348E-02
2.440000000E+01 9.999992453E-01 5.006817850E-11 5.081319568E-02
2.450000000E+01 9.999992514E-01 4.949800592E-11 5.060579488E-02
2.460000000E+01 9.999992575E-01 4.909640104E-11 5.040008027E-02
2.470000000E+01 9.999992635E-01 4.749443422E-11 5.019603136E-02
2.480000000E+01 9.999992694E-01 4.666966308E-11 4.999362801E-02
2.490000000E+01 9.999992753E-01 4.586010852E-11 4.979285038E-02
2.500000000E+01 9.999992811E-01 4.541896487E-11 4.959367898E-02
2.510000000E+01 9.999992868E-01 4.505778169E-11 4.939609460E-02
2.520000000E+01 9.999992925E-01 4.355480289E-11 4.920007836E-02
2.530000000E+01 9.999992980E-01 4.281484804E-11 4.900561164E-02
2.540000000E+01 9.999993036E-01 4.208826906E-11 4.881267616E-02
2.550000000E+01 9.999993090E-01 4.155812015E-11 4.862125391E-02
2.560000000E+01 9.999993144E-01 4.123408147E-11 4.843132713E-02
2.570000000E+01 9.999993197E-01 4.091381797E-11 4.824287839E-02
2.580000000E+01 9.999993250E-01 3.933245201E-11 4.805589049E-02
2.590000000E+01 9.999993302E-01 3.867473156E-11 4.787034651E-02
2.600000000E+01 9.999993353E-01 3.802865335E-11 4.768622979E-02
2.610000000E+01 9.999993404E-01 3.772924435E-11 4.750352393E-02
2.620000000E+01 9.999993454E-01 3.744178448E-11 4.732221277E-02
2.630000000E+01 9.999993504E-01 3.715759739E-11 4.714228040E-02
2.640000000E+01 9.999993553E-01 3.687663358E-11 4.696371116E-02
2.650000000E+01 9.999993602E-01 3.659884449E-11 4.678648961E-02
2.660000000E+01 9.999993650E-01 3.446238964E-11 4.661060055E-02
2.670000000E+01 9.999993697E-01 3.390354971E-11 4.643602901E-02
2.680000000E+01 9.999993744E-01 3.335430634E-11 4.626276025E-02
2.690000000E+01 9.999993791E-01 3.281446752E-11 4.609077972E-02
2.700000000E+01 9.999993837E-01 3.228384569E-11 4.592007313E-02
2.710000000E+01 9.999993882E-01 3.176225766E-11 4.575062637E-02
2.720000000E+01 9.999993927E-01 3.149234358E-11 4.558242554E-02
2.730000000E+01 9.999993971E-01 3.126205299E-11 4.541545694E-02
2.740000000E+01 9.999994015E-01 3.103427923E-11 4.524970710E-02
2.750000000E+01 9.999994059E-01 3.080898575E-11 4.508516271E-02
2.760000000E+01 9.999994102E-01 3.058613668E-11 4.492181067E-02
2.770000000E+01 9.999994144E-01 3.036569677E-11 4.475963807E-02
2.780000000E+01 9.999994186E-01 3.014763143E-11 4.459863218E-02
2.790000000E+01 9.999994228E-01 2.803347667E-11 4.443878045E-02
2.800000000E+01 9.999994269E-01 2.760164281E-11 4.428007052E-02
2.810000000E+01 9.999994310E-01 2.717687423E-11 4.412249020E-02
2.820000000E+01 9.999994350E-01 2.675903614E-11 4.396602747E-02
2.830000000E+01 9.999994390E-01 2.634799673E-11 4.381067048E-02
2.840000000E+01 9.999994430E-01 2.594362712E-11 4.365640756E-02
2.850000000E+01 9.999994469E-01 2.554580126E-11 4.350322718E-02
2.860000000E+01 9.999994507E-01 2.515439584E-11 4.335111799E-02
2.870000000E+01 9.999994545E-01 2.476929029E-11 4.320006880E-02
2.880000000E+01 9.999994583E-01 2.452764443E-11 4.305006856E-02
2.890000000E+01 9.999994621E-01 2.435819662E-11 4.290110639E-02
2.900000000E+01 9.999994658E-01 2.419049869E-11 4.275317154E-02
2.910000000E+01 9.999994694E-01 2.402452663E-11 4.260625342E-02
2.920000000E+01 9.999994731E-01 2.386025685E-11 4.246034160E-02
2.930000000E+01 9.999994767E-01 2.369766613E-11 4.231542575E-02
2.940000000E+01 9.999994802E-01 2.353673168E-11 4.217149573E-02
2.950000000E+01 9.999994837E-01 2.337743108E-11 4.202854151E-02
2.960000000E+01 9.999994872E-01 2.321974228E-11 4.188655320E-02
2.970000000E+01 9.999994907E-01 2.306364362E-11 4.174552103E-02
2.980000000E+01 9.999994941E-01 2.107020223E-11 4.160543539E-02
2.990000000E+01 9.999994975E-01 2.076488092E-11 4.146628678E-02
3.000000000E+01 9.999995008E-01 2.046424570E-11 4.132806582E-02
3.010000000E+01 9.999995041E-01 2.016821276E-11 4.119076328E-02
3.020000000E+01 9.999995074E-01 1.987669999E-11 4.105437002E-02
3.030000000E+01 9.999995106E-01 1.958962702E-11 4.091887705E-02
3.040000000E+01 9.999995139E-01 1.930691512E-11 4.078427548E-02
3.050000000E+01 9.999995170E-01 1.902848718E-11 4.065055654E-02
3.060000000E+01 9.999995202E-01 1.875426770E-11 4.051771159E-02
3.070000000E+01 9.999995233E-01 1.848418268E-11 4.038573207E-02
3.080000000E+01 9.999995264E-01 1.830292107E-11 4.025460956E-02
3.090000000E+01 9.999995295E-01 1.818464726E-11 4.012433575E-02
3.100000000E+01 9.999995325E-01 1.806751618E-11 3.999490241E-02
3.110000000E+01 9.999995355E-01 1.795151316E-11 3.986630143E-02
3.120000000E+01 9.999995385E-01 1.783662378E-11 3.973852483E-02
3.130000000E+01 9.999995414E-01 1.772283380E-11 3.961156468E-02
3.140000000E+01 9.999995443E-01 1.761012926E-11 3.948541320E-02
3.150000000E+01 9.999995472E-01 1.749849640E-11 3.936006269E-02
3.160000000E+01 9.999995501E-01 1.738792166E-11 3.923550552E-02
3.170000000E+01 9.999995529E-01 1.727839171E-11 3.911173421E-02
