# 11/03/2022 
# Density retrieved from www.chemicool.com/densities.html 
# Includes the real (n) and complex (k) part of the  refractive index. 
# Elements, B4C  
# Nominal density, g cm-3 =  [2.52] 
#    E [keV]      n       k    Wavelength [nm] 
2.000000000E+00 9.998741378E-01 2.445701536E-06 6.199209873E-01
2.100000000E+00 9.998860383E-01 1.988218277E-06 5.904009403E-01
2.200000000E+00 9.998963086E-01 1.628690777E-06 5.635645339E-01
2.300000000E+00 9.999051591E-01 1.446881024E-06 5.390617281E-01
2.400000000E+00 9.999130498E-01 1.174059427E-06 5.166008227E-01
2.500000000E+00 9.999199407E-01 9.935831727E-07 4.959367898E-01
2.600000000E+00 9.999260692E-01 8.294372192E-07 4.768622979E-01
2.700000000E+00 9.999314845E-01 7.307566210E-07 4.592007313E-01
2.800000000E+00 9.999363315E-01 6.335652900E-07 4.428007052E-01
2.900000000E+00 9.999407116E-01 5.300907520E-07 4.275317154E-01
3.000000000E+00 9.999446239E-01 4.729267928E-07 4.132806582E-01
3.100000000E+00 9.999481676E-01 4.139770981E-07 3.999490241E-01
3.200000000E+00 9.999513645E-01 3.799792398E-07 3.874506171E-01
3.300000000E+00 9.999543151E-01 3.173003251E-07 3.757096893E-01
3.400000000E+00 9.999569777E-01 2.867759284E-07 3.646594043E-01
3.500000000E+00 9.999594162E-01 2.555274518E-07 3.542405642E-01
3.600000000E+00 9.999616670E-01 2.194397981E-07 3.444005485E-01
3.700000000E+00 9.999637225E-01 1.986998163E-07 3.350924256E-01
3.800000000E+00 9.999656150E-01 1.820654401E-07 3.262742038E-01
3.900000000E+00 9.999673652E-01 1.641342822E-07 3.179081986E-01
4.000000000E+00 9.999689947E-01 1.424112529E-07 3.099604936E-01
4.100000000E+00 9.999704959E-01 1.301793224E-07 3.024004816E-01
4.200000000E+00 9.999718899E-01 1.199131489E-07 2.952004701E-01
4.300000000E+00 9.999731895E-01 1.082569693E-07 2.883353429E-01
4.400000000E+00 9.999743963E-01 1.016649709E-07 2.817822670E-01
4.500000000E+00 9.999755353E-01 8.762970188E-08 2.755204388E-01
4.600000000E+00 9.999765913E-01 8.130442677E-08 2.695308640E-01
4.700000000E+00 9.999775798E-01 7.587922890E-08 2.637961648E-01
4.800000000E+00 9.999785085E-01 6.928950971E-08 2.583004114E-01
4.900000000E+00 9.999793780E-01 6.549752774E-08 2.530289744E-01
5.000000000E+00 9.999802042E-01 5.659417459E-08 2.479683949E-01
5.100000000E+00 9.999809754E-01 5.279457763E-08 2.431062695E-01
5.200000000E+00 9.999817022E-01 4.940330752E-08 2.384311490E-01
5.300000000E+00 9.999823888E-01 4.559206566E-08 2.339324480E-01
5.400000000E+00 9.999830358E-01 4.331282211E-08 2.296003657E-01
5.500000000E+00 9.999836530E-01 3.808673028E-08 2.254258136E-01
5.600000000E+00 9.999842337E-01 3.539381648E-08 2.214003526E-01
5.700000000E+00 9.999847835E-01 3.330434247E-08 2.175161359E-01
5.800000000E+00 9.999853047E-01 3.152922400E-08 2.137658577E-01
5.900000000E+00 9.999858004E-01 2.922045060E-08 2.101427076E-01
6.000000000E+00 9.999862703E-01 2.790299204E-08 2.066403291E-01
6.100000000E+00 9.999867206E-01 2.473516447E-08 2.032527827E-01
6.200000000E+00 9.999871469E-01 2.311349433E-08 1.999745120E-01
6.300000000E+00 9.999875526E-01 2.187604381E-08 1.968003134E-01
6.400000000E+00 9.999879394E-01 2.071947242E-08 1.937253085E-01
6.500000000E+00 9.999883079E-01 1.994487563E-08 1.907449192E-01
6.600000000E+00 9.999886609E-01 1.842050182E-08 1.878548446E-01
6.700000000E+00 9.999889972E-01 1.767099633E-08 1.850510410E-01
6.800000000E+00 9.999893211E-01 1.568384614E-08 1.823297021E-01
6.900000000E+00 9.999896291E-01 1.482211948E-08 1.796872427E-01
7.000000000E+00 9.999899238E-01 1.410523010E-08 1.771202821E-01
7.100000000E+00 9.999902062E-01 1.343068026E-08 1.746256302E-01
7.200000000E+00 9.999904765E-01 1.299475399E-08 1.722002742E-01
7.300000000E+00 9.999907366E-01 1.203897269E-08 1.698413664E-01
7.400000000E+00 9.999909854E-01 1.159442082E-08 1.675462128E-01
7.500000000E+00 9.999912259E-01 1.039402925E-08 1.653122633E-01
7.600000000E+00 9.999914558E-01 9.824056078E-09 1.631371019E-01
7.700000000E+00 9.999916767E-01 9.375827925E-09 1.610184383E-01
7.800000000E+00 9.999918891E-01 8.966499421E-09 1.589540993E-01
7.900000000E+00 9.999920933E-01 8.638906264E-09 1.569420221E-01
8.000000000E+00 9.999922897E-01 8.424283437E-09 1.549802468E-01
8.100000000E+00 9.999924796E-01 7.834282340E-09 1.530669104E-01
8.200000000E+00 9.999926620E-01 7.572833562E-09 1.512002408E-01
8.300000000E+00 9.999928390E-01 6.782639257E-09 1.493785512E-01
8.400000000E+00 9.999930088E-01 6.444176350E-09 1.476002351E-01
8.500000000E+00 9.999931727E-01 6.124843491E-09 1.458637617E-01
8.600000000E+00 9.999933307E-01 5.880420745E-09 1.441676715E-01
8.700000000E+00 9.999934834E-01 5.647862327E-09 1.425105718E-01
8.800000000E+00 9.999936307E-01 5.506611987E-09 1.408911335E-01
8.900000000E+00 9.999937730E-01 5.383563089E-09 1.393080870E-01
9.000000000E+00 9.999939110E-01 5.035335811E-09 1.377602194E-01
9.100000000E+00 9.999940442E-01 4.883541663E-09 1.362463708E-01
9.200000000E+00 9.999941738E-01 4.388077108E-09 1.347654320E-01
9.300000000E+00 9.999942986E-01 4.189889093E-09 1.333163414E-01
9.400000000E+00 9.999944195E-01 4.013502836E-09 1.318980824E-01
9.500000000E+00 9.999945365E-01 3.868780050E-09 1.305096815E-01
9.600000000E+00 9.999946498E-01 3.730422806E-09 1.291502057E-01
9.700000000E+00 9.999947596E-01 3.629340794E-09 1.278187603E-01
9.800000000E+00 9.999948660E-01 3.555650513E-09 1.265144872E-01
9.900000000E+00 9.999949695E-01 3.335453830E-09 1.252365631E-01
1.000000000E+01 9.999950696E-01 3.243492397E-09 1.239841975E-01
1.010000000E+01 9.999951668E-01 3.154997694E-09 1.227566311E-01
1.020000000E+01 9.999952617E-01 2.834217824E-09 1.215531348E-01
1.030000000E+01 9.999953534E-01 2.717836945E-09 1.203730072E-01
1.040000000E+01 9.999954425E-01 2.610072534E-09 1.192155745E-01
1.050000000E+01 9.999955289E-01 2.524591069E-09 1.180801881E-01
1.060000000E+01 9.999956130E-01 2.442522049E-09 1.169662240E-01
1.070000000E+01 9.999956947E-01 2.367189584E-09 1.158730817E-01
1.080000000E+01 9.999957740E-01 2.323555688E-09 1.148001828E-01
1.090000000E+01 9.999958512E-01 2.281117208E-09 1.137469701E-01
1.100000000E+01 9.999959265E-01 2.139822117E-09 1.127129068E-01
1.110000000E+01 9.999959996E-01 2.086531286E-09 1.116974752E-01
1.120000000E+01 9.999960707E-01 2.035055534E-09 1.107001763E-01
1.130000000E+01 9.999961404E-01 1.833512349E-09 1.097205287E-01
1.140000000E+01 9.999962079E-01 1.765181979E-09 1.087580679E-01
1.150000000E+01 9.999962736E-01 1.699561155E-09 1.078123456E-01
1.160000000E+01 9.999963376E-01 1.645174884E-09 1.068829288E-01
1.170000000E+01 9.999964000E-01 1.596530585E-09 1.059693995E-01
1.180000000E+01 9.999964608E-01 1.549635908E-09 1.050713538E-01
1.190000000E+01 9.999965201E-01 1.521505383E-09 1.041884012E-01
1.200000000E+01 9.999965778E-01 1.496252620E-09 1.033201645E-01
1.210000000E+01 9.999966341E-01 1.471623368E-09 1.024662789E-01
1.220000000E+01 9.999966892E-01 1.384441754E-09 1.016263914E-01
1.230000000E+01 9.999967429E-01 1.353320895E-09 1.008001605E-01
1.240000000E+01 9.999967952E-01 1.323157894E-09 9.998725601E-02
1.250000000E+01 9.999968465E-01 1.193235689E-09 9.918735797E-02
1.260000000E+01 9.999968965E-01 1.152983458E-09 9.840015671E-02
1.270000000E+01 9.999969452E-01 1.114177584E-09 9.762535233E-02
1.280000000E+01 9.999969928E-01 1.076757625E-09 9.686265426E-02
1.290000000E+01 9.999970393E-01 1.047649866E-09 9.611178098E-02
1.300000000E+01 9.999970847E-01 1.019694883E-09 9.537245958E-02
1.310000000E+01 9.999971290E-01 9.969372283E-10 9.464442554E-02
1.320000000E+01 9.999971723E-01 9.818893351E-10 9.392742232E-02
1.330000000E+01 9.999972147E-01 9.671795904E-10 9.322120110E-02
1.340000000E+01 9.999972561E-01 9.527979380E-10 9.252552049E-02
1.350000000E+01 9.999972967E-01 8.999551927E-10 9.184014627E-02
1.360000000E+01 9.999973363E-01 8.816095367E-10 9.116485107E-02
1.370000000E+01 9.999973751E-01 8.637758955E-10 9.049941420E-02
1.380000000E+01 9.999974132E-01 7.821183034E-10 8.984362135E-02
1.390000000E+01 9.999974503E-01 7.580978183E-10 8.919726436E-02
1.400000000E+01 9.999974866E-01 7.348617330E-10 8.856014104E-02
1.410000000E+01 9.999975222E-01 7.123802534E-10 8.793205493E-02
1.420000000E+01 9.999975570E-01 6.907593524E-10 8.731281511E-02
1.430000000E+01 9.999975910E-01 6.739206567E-10 8.670223598E-02
1.440000000E+01 9.999976244E-01 6.575802277E-10 8.610013712E-02
1.450000000E+01 9.999976571E-01 6.437914479E-10 8.550634307E-02
1.460000000E+01 9.999976891E-01 6.350025893E-10 8.492068319E-02
1.470000000E+01 9.999977204E-01 6.263924843E-10 8.434299147E-02
1.480000000E+01 9.999977511E-01 6.179563181E-10 8.377310639E-02
1.490000000E+01 9.999977812E-01 5.865107541E-10 8.321087078E-02
1.500000000E+01 9.999978107E-01 5.756380912E-10 8.265613164E-02
1.510000000E+01 9.999978396E-01 5.650412838E-10 8.210874004E-02
1.520000000E+01 9.999978681E-01 5.168161502E-10 8.156855096E-02
1.530000000E+01 9.999978959E-01 5.023966838E-10 8.103542318E-02
1.540000000E+01 9.999979231E-01 4.884054725E-10 8.050921913E-02
1.550000000E+01 9.999979499E-01 4.748277107E-10 7.998980481E-02
1.560000000E+01 9.999979761E-01 4.616491865E-10 7.947704965E-02
1.570000000E+01 9.999980018E-01 4.496725256E-10 7.897082641E-02
1.580000000E+01 9.999980270E-01 4.397417820E-10 7.847101105E-02
1.590000000E+01 9.999980518E-01 4.300773809E-10 7.797748268E-02
1.600000000E+01 9.999980760E-01 4.246189149E-10 7.749012341E-02
1.610000000E+01 9.999980999E-01 4.193605270E-10 7.700881830E-02
1.620000000E+01 9.999981233E-01 4.141992159E-10 7.653345522E-02
1.630000000E+01 9.999981462E-01 4.091326065E-10 7.606392482E-02
1.640000000E+01 9.999981688E-01 4.041583961E-10 7.560012040E-02
1.650000000E+01 9.999981909E-01 3.830877741E-10 7.514193785E-02
1.660000000E+01 9.999982127E-01 3.766718755E-10 7.468927558E-02
1.670000000E+01 9.999982341E-01 3.452580729E-10 7.424203441E-02
1.680000000E+01 9.999982550E-01 3.364819064E-10 7.380011753E-02
1.690000000E+01 9.999982757E-01 3.279433784E-10 7.336343045E-02
1.700000000E+01 9.999982959E-01 3.196349940E-10 7.293188086E-02
1.710000000E+01 9.999983158E-01 3.115495327E-10 7.250537863E-02
1.720000000E+01 9.999983353E-01 3.036800368E-10 7.208383573E-02
1.730000000E+01 9.999983545E-01 2.960198000E-10 7.166716616E-02
1.740000000E+01 9.999983734E-01 2.903666213E-10 7.125528590E-02
1.750000000E+01 9.999983919E-01 2.870576270E-10 7.084811283E-02
1.760000000E+01 9.999984101E-01 2.838048756E-10 7.044556674E-02
1.770000000E+01 9.999984281E-01 2.806070997E-10 7.004756919E-02
1.780000000E+01 9.999984457E-01 2.774630674E-10 6.965404352E-02
1.790000000E+01 9.999984630E-01 2.743715810E-10 6.926491478E-02
1.800000000E+01 9.999984800E-01 2.713314761E-10 6.888010970E-02
1.810000000E+01 9.999984968E-01 2.442503688E-10 6.849955661E-02
1.820000000E+01 9.999985133E-01 2.385210497E-10 6.812318542E-02
1.830000000E+01 9.999985295E-01 2.329350309E-10 6.775092757E-02
1.840000000E+01 9.999985455E-01 2.274881355E-10 6.738271601E-02
1.850000000E+01 9.999985612E-01 2.221763277E-10 6.701848511E-02
1.860000000E+01 9.999985766E-01 2.169957078E-10 6.665817068E-02
1.870000000E+01 9.999985918E-01 2.119425064E-10 6.630170987E-02
1.880000000E+01 9.999986067E-01 2.070130797E-10 6.594904120E-02
1.890000000E+01 9.999986215E-01 2.028694140E-10 6.560010448E-02
1.900000000E+01 9.999986359E-01 2.002745280E-10 6.525484077E-02
1.910000000E+01 9.999986502E-01 1.981829023E-10 6.491319239E-02
1.920000000E+01 9.999986642E-01 1.961238732E-10 6.457510284E-02
1.930000000E+01 9.999986780E-01 1.940967666E-10 6.424051682E-02
1.940000000E+01 9.999986916E-01 1.921009262E-10 6.390938013E-02
1.950000000E+01 9.999987050E-01 1.813726772E-10 6.358163972E-02
1.960000000E+01 9.999987182E-01 1.782228779E-10 6.325724360E-02
1.970000000E+01 9.999987312E-01 1.751406270E-10 6.293614084E-02
1.980000000E+01 9.999987440E-01 1.658294321E-10 6.261828154E-02
1.990000000E+01 9.999987566E-01 1.622426838E-10 6.230361681E-02
2.000000000E+01 9.999987690E-01 1.587382509E-10 6.199209873E-02
2.010000000E+01 9.999987812E-01 1.553139333E-10 6.168368033E-02
2.020000000E+01 9.999987933E-01 1.526458324E-10 6.137831557E-02
2.030000000E+01 9.999988051E-01 1.505015874E-10 6.107595934E-02
2.040000000E+01 9.999988168E-01 1.483981999E-10 6.077656738E-02
2.050000000E+01 9.999988283E-01 1.463346925E-10 6.048009632E-02
2.060000000E+01 9.999988397E-01 1.443101159E-10 6.018650362E-02
2.070000000E+01 9.999988509E-01 1.423235479E-10 5.989574756E-02
2.080000000E+01 9.999988619E-01 1.409225352E-10 5.960778724E-02
2.090000000E+01 9.999988728E-01 1.323154830E-10 5.932258252E-02
2.100000000E+01 9.999988835E-01 1.301492133E-10 5.904009403E-02
2.110000000E+01 9.999988940E-01 1.280265048E-10 5.876028316E-02
2.120000000E+01 9.999989045E-01 1.259462971E-10 5.848311201E-02
2.130000000E+01 9.999989147E-01 1.239075602E-10 5.820854341E-02
2.140000000E+01 9.999989248E-01 1.219092937E-10 5.793654087E-02
2.150000000E+01 9.999989348E-01 1.199505254E-10 5.766706859E-02
2.160000000E+01 9.999989447E-01 1.144758204E-10 5.740009142E-02
2.170000000E+01 9.999989544E-01 1.129795577E-10 5.713557487E-02
2.180000000E+01 9.999989640E-01 1.115099014E-10 5.687348507E-02
2.190000000E+01 9.999989734E-01 1.100662568E-10 5.661378879E-02
2.200000000E+01 9.999989827E-01 1.086480448E-10 5.635645339E-02
2.210000000E+01 9.999989919E-01 1.031670833E-10 5.610144681E-02
2.220000000E+01 9.999990010E-01 1.011564148E-10 5.584873759E-02
2.230000000E+01 9.999990099E-01 9.918721108E-11 5.559829482E-02
2.240000000E+01 9.999990187E-01 9.725847659E-11 5.535008815E-02
2.250000000E+01 9.999990274E-01 9.570191381E-11 5.510408776E-02
2.260000000E+01 9.999990360E-01 9.481398440E-11 5.486026436E-02
2.270000000E+01 9.999990445E-01 9.398045891E-11 5.461858919E-02
2.280000000E+01 9.999990529E-01 9.315787679E-11 5.437903397E-02
2.290000000E+01 9.999990611E-01 9.234604732E-11 5.414157094E-02
2.300000000E+01 9.999990693E-01 8.876451370E-11 5.390617281E-02
2.310000000E+01 9.999990773E-01 8.745319674E-11 5.367281275E-02
2.320000000E+01 9.999990853E-01 8.616579485E-11 5.344146442E-02
2.330000000E+01 9.999990931E-01 8.210726200E-11 5.321210191E-02
2.340000000E+01 9.999991008E-01 8.059066984E-11 5.298469977E-02
2.350000000E+01 9.999991085E-01 7.947644483E-11 5.275923296E-02
2.360000000E+01 9.999991160E-01 7.851508900E-11 5.253567689E-02
2.370000000E+01 9.999991235E-01 7.756951486E-11 5.231400737E-02
2.380000000E+01 9.999991308E-01 7.489926690E-11 5.209420061E-02
2.390000000E+01 9.999991381E-01 7.354584989E-11 5.187623325E-02
2.400000000E+01 9.999991453E-01 7.229421520E-11 5.166008227E-02
2.410000000E+01 9.999991523E-01 7.154466325E-11 5.144572509E-02
2.420000000E+01 9.999991593E-01 7.095460669E-11 5.123313945E-02
2.430000000E+01 9.999991662E-01 6.903851644E-11 5.102230348E-02
2.440000000E+01 9.999991731E-01 6.806387135E-11 5.081319568E-02
2.450000000E+01 9.999991798E-01 6.737260190E-11 5.060579488E-02
2.460000000E+01 9.999991864E-01 6.682597048E-11 5.040008027E-02
2.470000000E+01 9.999991930E-01 6.527016338E-11 5.019603136E-02
2.480000000E+01 9.999991995E-01 6.437188093E-11 4.999362801E-02
2.490000000E+01 9.999992059E-01 6.162214468E-11 4.979285038E-02
2.500000000E+01 9.999992123E-01 6.085566034E-11 4.959367898E-02
2.510000000E+01 9.999992185E-01 6.016378701E-11 4.939609460E-02
2.520000000E+01 9.999992247E-01 5.851664048E-11 4.920007836E-02
2.530000000E+01 9.999992309E-01 5.751950591E-11 4.900561164E-02
2.540000000E+01 9.999992369E-01 5.654041245E-11 4.881267616E-02
2.550000000E+01 9.999992429E-01 5.573350049E-11 4.862125391E-02
2.560000000E+01 9.999992488E-01 5.510678940E-11 4.843132713E-02
2.570000000E+01 9.999992546E-01 5.467333353E-11 4.824287839E-02
2.580000000E+01 9.999992604E-01 5.318430554E-11 4.805589049E-02
2.590000000E+01 9.999992661E-01 5.247555771E-11 4.787034651E-02
2.600000000E+01 9.999992717E-01 5.177840042E-11 4.768622979E-02
2.610000000E+01 9.999992773E-01 5.137517660E-11 4.750352393E-02
2.620000000E+01 9.999992828E-01 5.098374811E-11 4.732221277E-02
2.630000000E+01 9.999992883E-01 4.945714758E-11 4.714228040E-02
2.640000000E+01 9.999992936E-01 4.892584303E-11 4.696371116E-02
2.650000000E+01 9.999992990E-01 4.840231302E-11 4.678648961E-02
2.660000000E+01 9.999993042E-01 4.631724325E-11 4.661060055E-02
2.670000000E+01 9.999993094E-01 4.556672672E-11 4.643602901E-02
2.680000000E+01 9.999993146E-01 4.482909539E-11 4.626276025E-02
2.690000000E+01 9.999993197E-01 4.410409147E-11 4.609077972E-02
2.700000000E+01 9.999993247E-01 4.339717476E-11 4.592007313E-02
2.710000000E+01 9.999993297E-01 4.283832163E-11 4.575062637E-02
2.720000000E+01 9.999993346E-01 4.249289913E-11 4.558242554E-02
2.730000000E+01 9.999993395E-01 4.218216599E-11 4.541545694E-02
2.740000000E+01 9.999993443E-01 4.187482883E-11 4.524970710E-02
2.750000000E+01 9.999993490E-01 4.157083834E-11 4.508516271E-02
2.760000000E+01 9.999993537E-01 4.050714050E-11 4.492181067E-02
2.770000000E+01 9.999993584E-01 4.009296767E-11 4.475963807E-02
2.780000000E+01 9.999993630E-01 3.968456822E-11 4.459863218E-02
2.790000000E+01 9.999993676E-01 3.768179084E-11 4.443878045E-02
2.800000000E+01 9.999993721E-01 3.710054890E-11 4.428007052E-02
2.810000000E+01 9.999993765E-01 3.661605527E-11 4.412249020E-02
2.820000000E+01 9.999993810E-01 3.616682356E-11 4.396602747E-02
2.830000000E+01 9.999993853E-01 3.572434913E-11 4.381067048E-02
2.840000000E+01 9.999993896E-01 3.488573405E-11 4.365640756E-02
2.850000000E+01 9.999993939E-01 3.435453671E-11 4.350322718E-02
2.860000000E+01 9.999993982E-01 3.383189443E-11 4.335111799E-02
2.870000000E+01 9.999994023E-01 3.340906434E-11 4.320006880E-02
2.880000000E+01 9.999994065E-01 3.311851612E-11 4.305006856E-02
2.890000000E+01 9.999994106E-01 3.260121314E-11 4.290110639E-02
2.900000000E+01 9.999994146E-01 3.227923646E-11 4.275317154E-02
2.910000000E+01 9.999994187E-01 3.205344169E-11 4.260625342E-02
2.920000000E+01 9.999994226E-01 3.183427350E-11 4.246034160E-02
2.930000000E+01 9.999994266E-01 3.134866981E-11 4.231542575E-02
2.940000000E+01 9.999994305E-01 3.104669160E-11 4.217149573E-02
2.950000000E+01 9.999994343E-01 3.074868051E-11 4.202854151E-02
2.960000000E+01 9.999994381E-01 3.046096494E-11 4.188655320E-02
2.970000000E+01 9.999994419E-01 3.025618592E-11 4.174552103E-02
2.980000000E+01 9.999994457E-01 2.850357882E-11 4.160543539E-02
2.990000000E+01 9.999994494E-01 2.792360413E-11 4.146628678E-02
3.000000000E+01 9.999994530E-01 2.752088102E-11 4.132806582E-02
3.010000000E+01 9.999994567E-01 2.713216900E-11 4.119076328E-02
3.020000000E+01 9.999994602E-01 2.681947350E-11 4.105437002E-02
3.030000000E+01 9.999994638E-01 2.651118226E-11 4.091887705E-02
3.040000000E+01 9.999994673E-01 2.620722023E-11 4.078427548E-02
3.050000000E+01 9.999994708E-01 2.590751386E-11 4.065055654E-02
3.060000000E+01 9.999994743E-01 2.524390785E-11 4.051771159E-02
3.070000000E+01 9.999994777E-01 2.488461042E-11 4.038573207E-02
3.080000000E+01 9.999994811E-01 2.460213743E-11 4.025460956E-02
3.090000000E+01 9.999994844E-01 2.437467975E-11 4.012433575E-02
3.100000000E+01 9.999994878E-01 2.415007922E-11 3.999490241E-02
3.110000000E+01 9.999994910E-01 2.397953596E-11 3.986630143E-02
3.120000000E+01 9.999994943E-01 2.382606733E-11 3.973852483E-02
3.130000000E+01 9.999994975E-01 2.367406729E-11 3.961156468E-02
3.140000000E+01 9.999995007E-01 2.352351716E-11 3.948541320E-02
3.150000000E+01 9.999995039E-01 2.337439857E-11 3.936006269E-02
3.160000000E+01 9.999995070E-01 2.322669342E-11 3.923550552E-02
3.170000000E+01 9.999995101E-01 2.308038390E-11 3.911173421E-02
3.180000000E+01 9.999995132E-01 2.247069781E-11 3.898874134E-02
3.190000000E+01 9.999995163E-01 2.227221960E-11 3.886651958E-02
3.200000000E+01 9.999995193E-01 2.082695811E-11 3.874506171E-02
3.210000000E+01 9.999995223E-01 2.054650711E-11 3.862436058E-02
3.220000000E+01 9.999995252E-01 2.027006423E-11 3.850440915E-02
3.230000000E+01 9.999995282E-01 1.999756264E-11 3.838520045E-02
3.240000000E+01 9.999995311E-01 1.972893685E-11 3.826672761E-02
3.250000000E+01 9.999995340E-01 1.949896565E-11 3.814898383E-02
3.260000000E+01 9.999995368E-01 1.929069162E-11 3.803196241E-02
3.270000000E+01 9.999995396E-01 1.908513668E-11 3.791565672E-02
