# 04/03/2022 
# Density retrieved from www.chemicool.com/densities.html 
# Includes the real (n) and complex (k) part of the  refractive index. 
# Element, Ba  (Z = 56) 
# Nominal density, g cm-3 =  3.59 
#    E [keV]      n       k    Wavelength [nm] 
1.000000000E+00 9.996552357E-01 3.041761970E-04 1.239841975E+00
1.100000000E+00 9.996863928E-01 2.577236116E-04 1.127129068E+00
1.200000000E+00 9.997021830E-01 2.072571082E-04 1.033201645E+00
1.300000000E+00 9.997284089E-01 1.669222547E-04 9.537245958E-01
1.400000000E+00 9.997519173E-01 1.343427328E-04 8.856014104E-01
1.500000000E+00 9.997757629E-01 1.080497125E-04 8.265613164E-01
1.600000000E+00 9.997967112E-01 8.649886116E-05 7.749012341E-01
1.700000000E+00 9.998163255E-01 7.049167716E-05 7.293188086E-01
1.800000000E+00 9.998348841E-01 6.069170204E-05 6.888010970E-01
1.900000000E+00 9.998492558E-01 4.863725473E-05 6.525484077E-01
2.000000000E+00 9.998629615E-01 4.093722040E-05 6.199209873E-01
2.100000000E+00 9.998749572E-01 3.481487301E-05 5.904009403E-01
2.200000000E+00 9.998860663E-01 3.172181611E-05 5.635645339E-01
2.300000000E+00 9.998949796E-01 2.547720708E-05 5.390617281E-01
2.400000000E+00 9.999034647E-01 2.301462482E-05 5.166008227E-01
2.500000000E+00 9.999110331E-01 2.121027823E-05 4.959367898E-01
2.600000000E+00 9.999175400E-01 1.674431021E-05 4.768622979E-01
2.700000000E+00 9.999234750E-01 1.468880972E-05 4.592007313E-01
2.800000000E+00 9.999288349E-01 1.353799569E-05 4.428007052E-01
2.900000000E+00 9.999336582E-01 1.262043831E-05 4.275317154E-01
3.000000000E+00 9.999381641E-01 1.019941714E-05 4.132806582E-01
3.100000000E+00 9.999421345E-01 9.091330026E-06 3.999490241E-01
3.200000000E+00 9.999457145E-01 8.328897809E-06 3.874506171E-01
3.300000000E+00 9.999489547E-01 7.831764331E-06 3.757096893E-01
3.400000000E+00 9.999521948E-01 6.586428806E-06 3.646594043E-01
3.500000000E+00 9.999549828E-01 5.947366637E-06 3.542405642E-01
3.600000000E+00 9.999575342E-01 5.382237897E-06 3.444005485E-01
3.700000000E+00 9.999598428E-01 4.971043519E-06 3.350924256E-01
3.800000000E+00 9.999619285E-01 4.712852200E-06 3.262742038E-01
3.900000000E+00 9.999641817E-01 4.059866246E-06 3.179081986E-01
4.000000000E+00 9.999660670E-01 3.711012143E-06 3.099604936E-01
4.100000000E+00 9.999678077E-01 3.397837357E-06 3.024004816E-01
4.200000000E+00 9.999693775E-01 3.167919166E-06 2.952004701E-01
4.300000000E+00 9.999707852E-01 3.022287403E-06 2.883353429E-01
4.400000000E+00 9.999724861E-01 2.643950418E-06 2.817822670E-01
4.500000000E+00 9.999738363E-01 2.439660675E-06 2.755204388E-01
4.600000000E+00 9.999750263E-01 2.294212400E-06 2.695308640E-01
4.700000000E+00 9.999764146E-01 2.089002222E-06 2.637961648E-01
4.800000000E+00 9.999775908E-01 1.937183354E-06 2.583004114E-01
4.900000000E+00 9.999785364E-01 1.845923607E-06 2.530289744E-01
5.000000000E+00 9.999799651E-01 1.673398345E-06 2.479683949E-01
5.100000000E+00 9.999812949E-01 1.560206150E-06 2.431062695E-01
5.200000000E+00 9.999832054E-01 1.898612804E-06 2.384311490E-01
5.300000000E+00 9.999838944E-01 3.525418782E-06 2.339324480E-01
5.400000000E+00 9.999835683E-01 3.768516734E-06 2.296003657E-01
5.500000000E+00 9.999838301E-01 3.522888229E-06 2.254258136E-01
5.600000000E+00 9.999845772E-01 3.627132298E-06 2.214003526E-01
5.700000000E+00 9.999849783E-01 4.001758662E-06 2.175161359E-01
5.800000000E+00 9.999848145E-01 3.970629432E-06 2.137658577E-01
5.900000000E+00 9.999851914E-01 3.797778730E-06 2.101427076E-01
6.000000000E+00 9.999856323E-01 3.824749910E-06 2.066403291E-01
6.100000000E+00 9.999856004E-01 3.817474172E-06 2.032527827E-01
6.200000000E+00 9.999859447E-01 3.672739348E-06 1.999745120E-01
6.300000000E+00 9.999860945E-01 3.428309943E-06 1.968003134E-01
6.400000000E+00 9.999863786E-01 3.233418008E-06 1.937253085E-01
6.500000000E+00 9.999866723E-01 3.061094638E-06 1.907449192E-01
6.600000000E+00 9.999870687E-01 2.966346377E-06 1.878548446E-01
6.700000000E+00 9.999872820E-01 2.749784045E-06 1.850510410E-01
6.800000000E+00 9.999876238E-01 2.647076119E-06 1.823297021E-01
6.900000000E+00 9.999878805E-01 2.476478861E-06 1.796872427E-01
7.000000000E+00 9.999881675E-01 2.352232620E-06 1.771202821E-01
7.100000000E+00 9.999884894E-01 2.277857283E-06 1.746256302E-01
7.200000000E+00 9.999887304E-01 2.127265570E-06 1.722002742E-01
7.300000000E+00 9.999889981E-01 2.024635471E-06 1.698413664E-01
7.400000000E+00 9.999892926E-01 1.969350482E-06 1.675462128E-01
7.500000000E+00 9.999895174E-01 1.837190712E-06 1.653122633E-01
7.600000000E+00 9.999897705E-01 1.760642872E-06 1.631371019E-01
7.700000000E+00 9.999900345E-01 1.715208843E-06 1.610184383E-01
7.800000000E+00 9.999902407E-01 1.595297924E-06 1.589540993E-01
7.900000000E+00 9.999904748E-01 1.536941351E-06 1.569420221E-01
8.000000000E+00 9.999907115E-01 1.498757964E-06 1.549802468E-01
8.100000000E+00 9.999909013E-01 1.392062626E-06 1.530669104E-01
8.200000000E+00 9.999911140E-01 1.343908744E-06 1.512002408E-01
8.300000000E+00 9.999913096E-01 1.274562657E-06 1.493785512E-01
8.400000000E+00 9.999915042E-01 1.220408852E-06 1.476002351E-01
8.500000000E+00 9.999917003E-01 1.186238586E-06 1.458637617E-01
8.600000000E+00 9.999918767E-01 1.120873095E-06 1.441676715E-01
8.700000000E+00 9.999920541E-01 1.074815395E-06 1.425105718E-01
8.800000000E+00 9.999922315E-01 1.045330000E-06 1.408911335E-01
8.900000000E+00 9.999923939E-01 9.899628182E-07 1.393080870E-01
9.000000000E+00 9.999925558E-01 9.506037958E-07 1.377602194E-01
9.100000000E+00 9.999927177E-01 9.276352677E-07 1.362463708E-01
9.200000000E+00 9.999928661E-01 8.778816354E-07 1.347654320E-01
9.300000000E+00 9.999930141E-01 8.440444181E-07 1.333163414E-01
9.400000000E+00 9.999931605E-01 8.214072528E-07 1.318980824E-01
9.500000000E+00 9.999932977E-01 7.813633750E-07 1.305096815E-01
9.600000000E+00 9.999934332E-01 7.521592734E-07 1.291502057E-01
9.700000000E+00 9.999935670E-01 7.334977000E-07 1.278187603E-01
9.800000000E+00 9.999936930E-01 6.979362059E-07 1.265144872E-01
9.900000000E+00 9.999938172E-01 6.726095814E-07 1.252365631E-01
1.000000000E+01 9.999939392E-01 6.545385074E-07 1.239841975E-01
1.010000000E+01 9.999940554E-01 6.253188541E-07 1.227566311E-01
1.020000000E+01 9.999941696E-01 6.037513143E-07 1.215531348E-01
1.030000000E+01 9.999942804E-01 5.819319045E-07 1.203730072E-01
1.040000000E+01 9.999943897E-01 5.699148602E-07 1.192155745E-01
1.050000000E+01 9.999944936E-01 5.423260581E-07 1.180801881E-01
1.060000000E+01 9.999945959E-01 5.238320667E-07 1.169662240E-01
1.070000000E+01 9.999946955E-01 5.060971248E-07 1.158730817E-01
1.080000000E+01 9.999947924E-01 4.890556963E-07 1.148001828E-01
1.090000000E+01 9.999948872E-01 4.774357849E-07 1.137469701E-01
1.100000000E+01 9.999949786E-01 4.573464675E-07 1.127129068E-01
1.110000000E+01 9.999950687E-01 4.491431098E-07 1.116974752E-01
1.120000000E+01 9.999951554E-01 4.278989902E-07 1.107001763E-01
1.130000000E+01 9.999952404E-01 4.152434788E-07 1.097205287E-01
1.140000000E+01 9.999953231E-01 4.009704575E-07 1.087580679E-01
1.150000000E+01 9.999954040E-01 3.916841020E-07 1.078123456E-01
1.160000000E+01 9.999954825E-01 3.772504798E-07 1.068829288E-01
1.170000000E+01 9.999955592E-01 3.643675523E-07 1.059693995E-01
1.180000000E+01 9.999956341E-01 3.531049357E-07 1.050713538E-01
1.190000000E+01 9.999957071E-01 3.460808230E-07 1.041884012E-01
1.200000000E+01 9.999957783E-01 3.403368427E-07 1.033201645E-01
1.210000000E+01 9.999958478E-01 3.220032392E-07 1.024662789E-01
1.220000000E+01 9.999959156E-01 3.123743791E-07 1.016263914E-01
1.230000000E+01 9.999959818E-01 3.030847463E-07 1.008001605E-01
1.240000000E+01 9.999960463E-01 2.980873391E-07 9.998725601E-02
1.250000000E+01 9.999961096E-01 2.855691473E-07 9.918735797E-02
1.260000000E+01 9.999961713E-01 2.772627453E-07 9.840015671E-02
1.270000000E+01 9.999962314E-01 2.724576385E-07 9.762535233E-02
1.280000000E+01 9.999962904E-01 2.615920486E-07 9.686265426E-02
1.290000000E+01 9.999963477E-01 2.573797660E-07 9.611178098E-02
1.300000000E+01 9.999964041E-01 2.470432134E-07 9.537245958E-02
1.310000000E+01 9.999964591E-01 2.401299592E-07 9.464442554E-02
1.320000000E+01 9.999965125E-01 2.362790073E-07 9.392742232E-02
1.330000000E+01 9.999965653E-01 2.270099451E-07 9.322120110E-02
1.340000000E+01 9.999966165E-01 2.220571855E-07 9.252552049E-02
1.350000000E+01 9.999966667E-01 2.160231682E-07 9.184014627E-02
1.360000000E+01 9.999967160E-01 2.089481930E-07 9.116485107E-02
1.370000000E+01 9.999967640E-01 2.033382327E-07 9.049941420E-02
1.380000000E+01 9.999968108E-01 2.002677874E-07 8.984362135E-02
1.390000000E+01 9.999968565E-01 1.973966018E-07 8.919726436E-02
1.400000000E+01 9.999969022E-01 1.876405479E-07 8.856014104E-02
1.410000000E+01 9.999969463E-01 1.827292469E-07 8.793205493E-02
1.420000000E+01 9.999969895E-01 1.782112343E-07 8.731281511E-02
1.430000000E+01 9.999970314E-01 1.757274844E-07 8.670223598E-02
1.440000000E+01 9.999970725E-01 1.732952994E-07 8.610013712E-02
1.450000000E+01 9.999971138E-01 1.646619086E-07 8.550634307E-02
1.460000000E+01 9.999971536E-01 1.604879204E-07 8.492068319E-02
1.470000000E+01 9.999971924E-01 1.571506916E-07 8.434299147E-02
1.480000000E+01 9.999972302E-01 1.550342082E-07 8.377310639E-02
1.490000000E+01 9.999972672E-01 1.529601953E-07 8.321087078E-02
1.500000000E+01 9.999973035E-01 1.509275243E-07 8.265613164E-02
1.510000000E+01 9.999973391E-01 1.489351035E-07 8.210874004E-02
1.520000000E+01 9.999973740E-01 1.469818774E-07 8.156855096E-02
1.530000000E+01 9.999974082E-01 1.450668245E-07 8.103542318E-02
1.540000000E+01 9.999974418E-01 1.431889566E-07 8.050921913E-02
1.550000000E+01 9.999974747E-01 1.413473172E-07 7.998980481E-02
1.560000000E+01 9.999975102E-01 1.256806979E-07 7.947704965E-02
1.570000000E+01 9.999975421E-01 1.227226580E-07 7.897082641E-02
1.580000000E+01 9.999975735E-01 1.198462237E-07 7.847101105E-02
1.590000000E+01 9.999976042E-01 1.170487099E-07 7.797748268E-02
1.600000000E+01 9.999976343E-01 1.143275352E-07 7.749012341E-02
1.610000000E+01 9.999976639E-01 1.116802168E-07 7.700881830E-02
1.620000000E+01 9.999976930E-01 1.091043667E-07 7.653345522E-02
1.630000000E+01 9.999977214E-01 1.065976869E-07 7.606392482E-02
1.640000000E+01 9.999977494E-01 1.041579661E-07 7.560012040E-02
1.650000000E+01 9.999977769E-01 1.017830756E-07 7.514193785E-02
1.660000000E+01 9.999978038E-01 9.947096592E-08 7.468927558E-02
1.670000000E+01 9.999978302E-01 9.763545497E-08 7.424203441E-02
1.680000000E+01 9.999978560E-01 9.647658743E-08 7.380011753E-02
1.690000000E+01 9.999978813E-01 9.533823058E-08 7.336343045E-02
1.700000000E+01 9.999979061E-01 9.421990324E-08 7.293188086E-02
1.710000000E+01 9.999979305E-01 9.312113825E-08 7.250537863E-02
1.720000000E+01 9.999979545E-01 9.204148200E-08 7.208383573E-02
1.730000000E+01 9.999979781E-01 9.098049396E-08 7.166716616E-02
1.740000000E+01 9.999980013E-01 8.993774619E-08 7.125528590E-02
1.750000000E+01 9.999980240E-01 8.891282298E-08 7.084811283E-02
1.760000000E+01 9.999980464E-01 8.790532036E-08 7.044556674E-02
1.770000000E+01 9.999980685E-01 8.691484579E-08 7.004756919E-02
1.780000000E+01 9.999980933E-01 7.675836860E-08 6.965404352E-02
1.790000000E+01 9.999981148E-01 7.516125486E-08 6.926491478E-02
1.800000000E+01 9.999981359E-01 7.360294749E-08 6.888010970E-02
1.810000000E+01 9.999981567E-01 7.208232252E-08 6.849955661E-02
1.820000000E+01 9.999981772E-01 7.059829411E-08 6.812318542E-02
1.830000000E+01 9.999981973E-01 6.914981302E-08 6.775092757E-02
1.840000000E+01 9.999982170E-01 6.773586527E-08 6.738271601E-02
1.850000000E+01 9.999982365E-01 6.635547069E-08 6.701848511E-02
1.860000000E+01 9.999982556E-01 6.500768169E-08 6.665817068E-02
1.870000000E+01 9.999982744E-01 6.369158200E-08 6.630170987E-02
1.880000000E+01 9.999982930E-01 6.240628545E-08 6.594904120E-02
1.890000000E+01 9.999983112E-01 6.115093488E-08 6.560010448E-02
1.900000000E+01 9.999983290E-01 6.016266346E-08 6.525484077E-02
1.910000000E+01 9.999983465E-01 5.953433707E-08 6.491319239E-02
1.920000000E+01 9.999983637E-01 5.891580270E-08 6.457510284E-02
1.930000000E+01 9.999983806E-01 5.830685792E-08 6.424051682E-02
1.940000000E+01 9.999983972E-01 5.770730553E-08 6.390938013E-02
1.950000000E+01 9.999984136E-01 5.711695334E-08 6.358163972E-02
1.960000000E+01 9.999984298E-01 5.653561409E-08 6.325724360E-02
1.970000000E+01 9.999984457E-01 5.596310523E-08 6.293614084E-02
1.980000000E+01 9.999984613E-01 5.539924882E-08 6.261828154E-02
1.990000000E+01 9.999984768E-01 5.484387139E-08 6.230361681E-02
2.000000000E+01 9.999984919E-01 5.429680377E-08 6.199209873E-02
2.010000000E+01 9.999985069E-01 5.375788101E-08 6.168368033E-02
2.020000000E+01 9.999985245E-01 4.772886591E-08 6.137831557E-02
2.030000000E+01 9.999985392E-01 4.685003619E-08 6.107595934E-02
2.040000000E+01 9.999985537E-01 4.599008032E-08 6.077656738E-02
2.050000000E+01 9.999985679E-01 4.514851505E-08 6.048009632E-02
2.060000000E+01 9.999985820E-01 4.432487165E-08 6.018650362E-02
2.070000000E+01 9.999985959E-01 4.351869538E-08 5.989574756E-02
2.080000000E+01 9.999986095E-01 4.272954500E-08 5.960778724E-02
2.090000000E+01 9.999986230E-01 4.195699232E-08 5.932258252E-02
2.100000000E+01 9.999986362E-01 4.120062177E-08 5.904009403E-02
2.110000000E+01 9.999986493E-01 4.046002996E-08 5.876028316E-02
2.120000000E+01 9.999986622E-01 3.973482527E-08 5.848311201E-02
2.130000000E+01 9.999986749E-01 3.902462745E-08 5.820854341E-02
2.140000000E+01 9.999986874E-01 3.832906725E-08 5.793654087E-02
2.150000000E+01 9.999986998E-01 3.764778606E-08 5.766706859E-02
2.160000000E+01 9.999987119E-01 3.699497167E-08 5.740009142E-02
2.170000000E+01 9.999987238E-01 3.665478983E-08 5.713557487E-02
2.180000000E+01 9.999987355E-01 3.631927865E-08 5.687348507E-02
2.190000000E+01 9.999987470E-01 3.598835300E-08 5.661378879E-02
2.200000000E+01 9.999987584E-01 3.566192972E-08 5.635645339E-02
2.210000000E+01 9.999987696E-01 3.533992749E-08 5.610144681E-02
2.220000000E+01 9.999987806E-01 3.502226683E-08 5.584873759E-02
2.230000000E+01 9.999987915E-01 3.470887004E-08 5.559829482E-02
2.240000000E+01 9.999988023E-01 3.439966116E-08 5.535008815E-02
2.250000000E+01 9.999988129E-01 3.409456589E-08 5.510408776E-02
2.260000000E+01 9.999988234E-01 3.379351160E-08 5.486026436E-02
2.270000000E+01 9.999988338E-01 3.349642722E-08 5.461858919E-02
2.280000000E+01 9.999988440E-01 3.320324327E-08 5.437903397E-02
2.290000000E+01 9.999988540E-01 3.291389177E-08 5.414157094E-02
2.300000000E+01 9.999988664E-01 2.924915334E-08 5.390617281E-02
2.310000000E+01 9.999988763E-01 2.877349207E-08 5.367281275E-02
2.320000000E+01 9.999988862E-01 2.830683296E-08 5.344146442E-02
2.330000000E+01 9.999988959E-01 2.784897293E-08 5.321210191E-02
2.340000000E+01 9.999989054E-01 2.739971428E-08 5.298469977E-02
2.350000000E+01 9.999989149E-01 2.695886450E-08 5.275923296E-02
2.360000000E+01 9.999989242E-01 2.652623615E-08 5.253567689E-02
2.370000000E+01 9.999989334E-01 2.610164666E-08 5.231400737E-02
2.380000000E+01 9.999989425E-01 2.568491821E-08 5.209420061E-02
2.390000000E+01 9.999989515E-01 2.527587760E-08 5.187623325E-02
2.400000000E+01 9.999989603E-01 2.487435610E-08 5.166008227E-02
2.410000000E+01 9.999989691E-01 2.448018929E-08 5.144572509E-02
2.420000000E+01 9.999989777E-01 2.409321699E-08 5.123313945E-02
2.430000000E+01 9.999989862E-01 2.371328309E-08 5.102230348E-02
2.440000000E+01 9.999989946E-01 2.334023543E-08 5.081319568E-02
2.450000000E+01 9.999990030E-01 2.297392574E-08 5.060579488E-02
2.460000000E+01 9.999990111E-01 2.276555788E-08 5.040008027E-02
2.470000000E+01 9.999990191E-01 2.258159453E-08 5.019603136E-02
2.480000000E+01 9.999990269E-01 2.239985205E-08 4.999362801E-02
2.490000000E+01 9.999990347E-01 2.222029484E-08 4.979285038E-02
2.500000000E+01 9.999990425E-01 2.204288801E-08 4.959367898E-02
2.510000000E+01 9.999990501E-01 2.186759735E-08 4.939609460E-02
2.520000000E+01 9.999990576E-01 2.169438934E-08 4.920007836E-02
2.530000000E+01 9.999990650E-01 2.152323112E-08 4.900561164E-02
2.540000000E+01 9.999990724E-01 2.135409047E-08 4.881267616E-02
2.550000000E+01 9.999990796E-01 2.118693580E-08 4.862125391E-02
2.560000000E+01 9.999990868E-01 2.102173615E-08 4.843132713E-02
2.570000000E+01 9.999990939E-01 2.085846115E-08 4.824287839E-02
2.580000000E+01 9.999991009E-01 2.069708101E-08 4.805589049E-02
2.590000000E+01 9.999991078E-01 2.053756653E-08 4.787034651E-02
2.600000000E+01 9.999991168E-01 1.838215163E-08 4.768622979E-02
2.610000000E+01 9.999991237E-01 1.811638222E-08 4.750352393E-02
2.620000000E+01 9.999991305E-01 1.785507534E-08 4.732221277E-02
2.630000000E+01 9.999991372E-01 1.759814167E-08 4.714228040E-02
2.640000000E+01 9.999991438E-01 1.734549402E-08 4.696371116E-02
2.650000000E+01 9.999991504E-01 1.709704724E-08 4.678648961E-02
2.660000000E+01 9.999991569E-01 1.685271813E-08 4.661060055E-02
2.670000000E+01 9.999991633E-01 1.661242546E-08 4.643602901E-02
2.680000000E+01 9.999991697E-01 1.637608984E-08 4.626276025E-02
2.690000000E+01 9.999991760E-01 1.614363373E-08 4.609077972E-02
2.700000000E+01 9.999991822E-01 1.591498138E-08 4.592007313E-02
2.710000000E+01 9.999991883E-01 1.569005873E-08 4.575062637E-02
2.720000000E+01 9.999991944E-01 1.546879347E-08 4.558242554E-02
2.730000000E+01 9.999992004E-01 1.525111487E-08 4.541545694E-02
2.740000000E+01 9.999992063E-01 1.503695384E-08 4.524970710E-02
2.750000000E+01 9.999992122E-01 1.482624284E-08 4.508516271E-02
2.760000000E+01 9.999992180E-01 1.461891585E-08 4.492181067E-02
2.770000000E+01 9.999992237E-01 1.446538918E-08 4.475963807E-02
2.780000000E+01 9.999992292E-01 1.436150880E-08 4.459863218E-02
2.790000000E+01 9.999992348E-01 1.425874342E-08 4.443878045E-02
2.800000000E+01 9.999992402E-01 1.415707712E-08 4.428007052E-02
2.810000000E+01 9.999992456E-01 1.405649430E-08 4.412249020E-02
2.820000000E+01 9.999992510E-01 1.395697961E-08 4.396602747E-02
2.830000000E+01 9.999992562E-01 1.385851798E-08 4.381067048E-02
2.840000000E+01 9.999992615E-01 1.376109460E-08 4.365640756E-02
2.850000000E+01 9.999992666E-01 1.366469494E-08 4.350322718E-02
2.860000000E+01 9.999992718E-01 1.356930469E-08 4.335111799E-02
2.870000000E+01 9.999992768E-01 1.347490981E-08 4.320006880E-02
2.880000000E+01 9.999992818E-01 1.338149651E-08 4.305006856E-02
2.890000000E+01 9.999992868E-01 1.328905121E-08 4.290110639E-02
2.900000000E+01 9.999992917E-01 1.319756060E-08 4.275317154E-02
2.910000000E+01 9.999992966E-01 1.310701156E-08 4.260625342E-02
2.920000000E+01 9.999993035E-01 1.182026273E-08 4.246034160E-02
2.930000000E+01 9.999993084E-01 1.166739024E-08 4.231542575E-02
2.940000000E+01 9.999993132E-01 1.151680928E-08 4.217149573E-02
2.950000000E+01 9.999993180E-01 1.136847892E-08 4.202854151E-02
2.960000000E+01 9.999993227E-01 1.122235909E-08 4.188655320E-02
2.970000000E+01 9.999993274E-01 1.107841057E-08 4.174552103E-02
2.980000000E+01 9.999993320E-01 1.093659494E-08 4.160543539E-02
2.990000000E+01 9.999993366E-01 1.079687458E-08 4.146628678E-02
3.000000000E+01 9.999993411E-01 1.065921265E-08 4.132806582E-02
3.010000000E+01 9.999993456E-01 1.052357306E-08 4.119076328E-02
3.020000000E+01 9.999993500E-01 1.038992047E-08 4.105437002E-02
3.030000000E+01 9.999993544E-01 1.025822026E-08 4.091887705E-02
3.040000000E+01 9.999993588E-01 1.012843852E-08 4.078427548E-02
3.050000000E+01 9.999993631E-01 1.000054204E-08 4.065055654E-02
3.060000000E+01 9.999993673E-01 9.874498247E-09 4.051771159E-02
3.070000000E+01 9.999993716E-01 9.750275268E-09 4.038573207E-02
3.080000000E+01 9.999993757E-01 9.627841850E-09 4.025460956E-02
3.090000000E+01 9.999993798E-01 9.556749563E-09 4.012433575E-02
3.100000000E+01 9.999993838E-01 9.495192560E-09 3.999490241E-02
3.110000000E+01 9.999993877E-01 9.434228399E-09 3.986630143E-02
3.120000000E+01 9.999993917E-01 9.373849493E-09 3.973852483E-02
3.130000000E+01 9.999993955E-01 9.314048372E-09 3.961156468E-02
3.140000000E+01 9.999993994E-01 9.254817690E-09 3.948541320E-02
3.150000000E+01 9.999994032E-01 9.196150214E-09 3.936006269E-02
3.160000000E+01 9.999994070E-01 9.138038826E-09 3.923550552E-02
3.170000000E+01 9.999994107E-01 9.080476520E-09 3.911173421E-02
