# 04/03/2022 
# Density retrieved from www.chemicool.com/densities.html 
# Includes the real (n) and complex (k) part of the  refractive index. 
# Element, Be  (Z = 4) 
# Nominal density, g cm-3 =  1.848 
#    E [keV]      n       k    Wavelength [nm] 
1.000000000E+00 9.996477845E-01 1.100758909E-05 1.239841975E+00
1.100000000E+00 9.997100661E-01 7.557569066E-06 1.127129068E+00
1.200000000E+00 9.997567182E-01 5.899622442E-06 1.033201645E+00
1.300000000E+00 9.997935282E-01 4.042483087E-06 9.537245958E-01
1.400000000E+00 9.998225221E-01 2.878239647E-06 8.856014104E-01
1.500000000E+00 9.998454686E-01 2.428454309E-06 8.265613164E-01
1.600000000E+00 9.998646071E-01 1.700153425E-06 7.749012341E-01
1.700000000E+00 9.998802691E-01 1.315275498E-06 7.293188086E-01
1.800000000E+00 9.998933182E-01 1.064378296E-06 6.888010970E-01
1.900000000E+00 9.999043880E-01 8.363639944E-07 6.525484077E-01
2.000000000E+00 9.999137908E-01 6.841978528E-07 6.199209873E-01
2.100000000E+00 9.999218861E-01 5.552908447E-07 5.904009403E-01
2.200000000E+00 9.999288854E-01 4.576648169E-07 5.635645339E-01
2.300000000E+00 9.999349390E-01 4.153608150E-07 5.390617281E-01
2.400000000E+00 9.999403278E-01 3.204131468E-07 5.166008227E-01
2.500000000E+00 9.999450230E-01 2.824415458E-07 4.959367898E-01
2.600000000E+00 9.999492130E-01 2.305059952E-07 4.768622979E-01
2.700000000E+00 9.999529289E-01 1.967330278E-07 4.592007313E-01
2.800000000E+00 9.999562372E-01 1.784810065E-07 4.428007052E-01
2.900000000E+00 9.999592327E-01 1.465606937E-07 4.275317154E-01
3.000000000E+00 9.999619198E-01 1.270659508E-07 4.132806582E-01
3.100000000E+00 9.999643414E-01 1.160330261E-07 3.999490241E-01
3.200000000E+00 9.999665533E-01 9.732719084E-08 3.874506171E-01
3.300000000E+00 9.999685591E-01 8.551209906E-08 3.757096893E-01
3.400000000E+00 9.999703875E-01 7.661534572E-08 3.646594043E-01
3.500000000E+00 9.999720555E-01 7.229986910E-08 3.542405642E-01
3.600000000E+00 9.999736010E-01 5.952841860E-08 3.444005485E-01
3.700000000E+00 9.999750143E-01 5.299784238E-08 3.350924256E-01
3.800000000E+00 9.999763144E-01 4.881113597E-08 3.262742038E-01
3.900000000E+00 9.999775135E-01 4.634009226E-08 3.179081986E-01
4.000000000E+00 9.999786338E-01 3.826794238E-08 3.099604936E-01
4.100000000E+00 9.999796668E-01 3.443606581E-08 3.024004816E-01
4.200000000E+00 9.999806255E-01 3.170543946E-08 2.952004701E-01
4.300000000E+00 9.999815161E-01 3.024791520E-08 2.883353429E-01
4.400000000E+00 9.999823528E-01 2.559342067E-08 2.817822670E-01
4.500000000E+00 9.999831307E-01 2.324987862E-08 2.755204388E-01
4.600000000E+00 9.999838574E-01 2.159251166E-08 2.695308640E-01
4.700000000E+00 9.999845370E-01 2.068345616E-08 2.637961648E-01
4.800000000E+00 9.999851786E-01 1.774053322E-08 2.583004114E-01
4.900000000E+00 9.999857789E-01 1.625152439E-08 2.530289744E-01
5.000000000E+00 9.999863434E-01 1.489592109E-08 2.479683949E-01
5.100000000E+00 9.999868741E-01 1.415344067E-08 2.431062695E-01
5.200000000E+00 9.999873740E-01 1.361431183E-08 2.384311490E-01
5.300000000E+00 9.999878489E-01 1.166747687E-08 2.339324480E-01
5.400000000E+00 9.999882957E-01 1.077138374E-08 2.296003657E-01
5.500000000E+00 9.999887184E-01 9.948558283E-09 2.254258136E-01
5.600000000E+00 9.999891182E-01 9.338837701E-09 2.214003526E-01
5.700000000E+00 9.999894967E-01 9.014033558E-09 2.175161359E-01
5.800000000E+00 9.999898557E-01 8.705884373E-09 2.137658577E-01
5.900000000E+00 9.999901989E-01 7.398697410E-09 2.101427076E-01
6.000000000E+00 9.999905234E-01 6.883978044E-09 2.066403291E-01
6.100000000E+00 9.999908322E-01 6.407326780E-09 2.032527827E-01
6.200000000E+00 9.999911258E-01 6.066335204E-09 1.999745120E-01
6.300000000E+00 9.999914053E-01 5.875281563E-09 1.968003134E-01
6.400000000E+00 9.999916718E-01 5.693113409E-09 1.937253085E-01
6.500000000E+00 9.999919274E-01 4.898356946E-09 1.907449192E-01
6.600000000E+00 9.999921706E-01 4.587237267E-09 1.878548446E-01
6.700000000E+00 9.999924029E-01 4.297115851E-09 1.850510410E-01
6.800000000E+00 9.999926250E-01 4.026354009E-09 1.823297021E-01
6.900000000E+00 9.999928373E-01 3.897385044E-09 1.796872427E-01
7.000000000E+00 9.999930405E-01 3.786826570E-09 1.771202821E-01
7.100000000E+00 9.999932351E-01 3.680906605E-09 1.746256302E-01
7.200000000E+00 9.999934227E-01 3.163922309E-09 1.722002742E-01
7.300000000E+00 9.999936019E-01 2.981309017E-09 1.698413664E-01
7.400000000E+00 9.999937739E-01 2.809883191E-09 1.675462128E-01
7.500000000E+00 9.999939390E-01 2.648851727E-09 1.653122633E-01
7.600000000E+00 9.999940975E-01 2.577005214E-09 1.631371019E-01
7.700000000E+00 9.999942498E-01 2.510504658E-09 1.610184383E-01
7.800000000E+00 9.999943963E-01 2.446545384E-09 1.589540993E-01
7.900000000E+00 9.999945379E-01 2.129361359E-09 1.569420221E-01
8.000000000E+00 9.999946737E-01 2.017548923E-09 1.549802468E-01
8.100000000E+00 9.999948046E-01 1.911993809E-09 1.530669104E-01
8.200000000E+00 9.999949307E-01 1.812290077E-09 1.512002408E-01
8.300000000E+00 9.999950522E-01 1.718062160E-09 1.493785512E-01
8.400000000E+00 9.999951693E-01 1.668633042E-09 1.476002351E-01
8.500000000E+00 9.999952823E-01 1.629602040E-09 1.458637617E-01
8.600000000E+00 9.999953914E-01 1.591924654E-09 1.441676715E-01
8.700000000E+00 9.999954967E-01 1.555539007E-09 1.425105718E-01
8.800000000E+00 9.999955990E-01 1.340787930E-09 1.408911335E-01
8.900000000E+00 9.999956974E-01 1.276786638E-09 1.393080870E-01
9.000000000E+00 9.999957926E-01 1.216022725E-09 1.377602194E-01
9.100000000E+00 9.999958846E-01 1.158306429E-09 1.362463708E-01
9.200000000E+00 9.999959737E-01 1.103460824E-09 1.347654320E-01
9.300000000E+00 9.999960598E-01 1.075439667E-09 1.333163414E-01
9.400000000E+00 9.999961432E-01 1.052679683E-09 1.318980824E-01
9.500000000E+00 9.999962240E-01 1.030634646E-09 1.305096815E-01
9.600000000E+00 9.999963022E-01 1.009274922E-09 1.291502057E-01
9.700000000E+00 9.999963784E-01 8.812860345E-10 1.278187603E-01
9.800000000E+00 9.999964520E-01 8.429991470E-10 1.265144872E-01
9.900000000E+00 9.999965233E-01 8.064752591E-10 1.252365631E-01
1.000000000E+01 9.999965926E-01 7.716202216E-10 1.239841975E-01
1.010000000E+01 9.999966597E-01 7.442439304E-10 1.227566311E-01
1.020000000E+01 9.999967249E-01 7.297224466E-10 1.215531348E-01
1.030000000E+01 9.999967882E-01 7.156218620E-10 1.203730072E-01
1.040000000E+01 9.999968497E-01 7.019260664E-10 1.192155745E-01
1.050000000E+01 9.999969094E-01 6.886197128E-10 1.180801881E-01
1.060000000E+01 9.999969676E-01 6.023332004E-10 1.169662240E-01
1.070000000E+01 9.999970241E-01 5.784161307E-10 1.158730817E-01
1.080000000E+01 9.999970790E-01 5.555085488E-10 1.148001828E-01
1.090000000E+01 9.999971324E-01 5.335609767E-10 1.137469701E-01
1.100000000E+01 9.999971843E-01 5.125267401E-10 1.127129068E-01
1.110000000E+01 9.999972348E-01 4.923617877E-10 1.116974752E-01
1.120000000E+01 9.999972840E-01 4.787612484E-10 1.107001763E-01
1.130000000E+01 9.999973319E-01 4.703250920E-10 1.097205287E-01
1.140000000E+01 9.999973785E-01 4.621099646E-10 1.087580679E-01
1.150000000E+01 9.999974239E-01 4.541082117E-10 1.078123456E-01
1.160000000E+01 9.999974681E-01 4.463125075E-10 1.068829288E-01
1.170000000E+01 9.999975113E-01 3.933858117E-10 1.059693995E-01
1.180000000E+01 9.999975533E-01 3.791542098E-10 1.050713538E-01
1.190000000E+01 9.999975943E-01 3.654688780E-10 1.041884012E-01
1.200000000E+01 9.999976343E-01 3.523054621E-10 1.033201645E-01
1.210000000E+01 9.999976732E-01 3.396408636E-10 1.024662789E-01
1.220000000E+01 9.999977112E-01 3.274531665E-10 1.016263914E-01
1.230000000E+01 9.999977483E-01 3.157215679E-10 1.008001605E-01
1.240000000E+01 9.999977845E-01 3.104731474E-10 9.998725601E-02
1.250000000E+01 9.999978198E-01 3.055254474E-10 9.918735797E-02
1.260000000E+01 9.999978543E-01 3.006950816E-10 9.840015671E-02
1.270000000E+01 9.999978879E-01 2.959783691E-10 9.762535233E-02
1.280000000E+01 9.999979208E-01 2.913717721E-10 9.686265426E-02
1.290000000E+01 9.999979529E-01 2.868718896E-10 9.611178098E-02
1.300000000E+01 9.999979844E-01 2.493884753E-10 9.537245958E-02
1.310000000E+01 9.999980151E-01 2.412063301E-10 9.464442554E-02
1.320000000E+01 9.999980450E-01 2.333080631E-10 9.392742232E-02
1.330000000E+01 9.999980743E-01 2.256822360E-10 9.322120110E-02
1.340000000E+01 9.999981030E-01 2.183179439E-10 9.252552049E-02
1.350000000E+01 9.999981310E-01 2.112047869E-10 9.184014627E-02
1.360000000E+01 9.999981584E-01 2.050703457E-10 9.116485107E-02
1.370000000E+01 9.999981852E-01 2.020875441E-10 9.049941420E-02
1.380000000E+01 9.999982114E-01 1.991693507E-10 8.984362135E-02
1.390000000E+01 9.999982370E-01 1.963139131E-10 8.919726436E-02
1.400000000E+01 9.999982621E-01 1.935194446E-10 8.856014104E-02
1.410000000E+01 9.999982867E-01 1.907842219E-10 8.793205493E-02
1.420000000E+01 9.999983108E-01 1.700206375E-10 8.731281511E-02
1.430000000E+01 9.999983343E-01 1.649177778E-10 8.670223598E-02
1.440000000E+01 9.999983574E-01 1.599772101E-10 8.610013712E-02
1.450000000E+01 9.999983800E-01 1.551929342E-10 8.550634307E-02
1.460000000E+01 9.999984021E-01 1.505592070E-10 8.492068319E-02
1.470000000E+01 9.999984238E-01 1.460705298E-10 8.434299147E-02
1.480000000E+01 9.999984450E-01 1.430561598E-10 8.377310639E-02
1.490000000E+01 9.999984658E-01 1.411423866E-10 8.321087078E-02
1.500000000E+01 9.999984862E-01 1.392667611E-10 8.265613164E-02
1.510000000E+01 9.999985062E-01 1.374282761E-10 8.210874004E-02
1.520000000E+01 9.999985258E-01 1.356259576E-10 8.156855096E-02
1.530000000E+01 9.999985450E-01 1.229992813E-10 8.103542318E-02
1.540000000E+01 9.999985639E-01 1.195620099E-10 8.050921913E-02
1.550000000E+01 9.999985824E-01 1.162264179E-10 7.998980481E-02
1.560000000E+01 9.999986005E-01 1.129890085E-10 7.947704965E-02
1.570000000E+01 9.999986183E-01 1.098464240E-10 7.897082641E-02
1.580000000E+01 9.999986357E-01 1.074367006E-10 7.847101105E-02
1.590000000E+01 9.999986528E-01 1.060895453E-10 7.797748268E-02
1.600000000E+01 9.999986696E-01 1.047675701E-10 7.749012341E-02
1.610000000E+01 9.999986861E-01 1.034701514E-10 7.700881830E-02
1.620000000E+01 9.999987022E-01 1.021966847E-10 7.653345522E-02
1.630000000E+01 9.999987181E-01 9.343093331E-11 7.606392482E-02
1.640000000E+01 9.999987337E-01 9.097040980E-11 7.560012040E-02
1.650000000E+01 9.999987490E-01 8.857835266E-11 7.514193785E-02
1.660000000E+01 9.999987641E-01 8.625254719E-11 7.468927558E-02
1.670000000E+01 9.999987788E-01 8.399086171E-11 7.424203441E-02
1.680000000E+01 9.999987933E-01 8.221695016E-11 7.380011753E-02
1.690000000E+01 9.999988076E-01 8.124684715E-11 7.336343045E-02
1.700000000E+01 9.999988216E-01 8.029381320E-11 7.293188086E-02
1.710000000E+01 9.999988353E-01 7.935745020E-11 7.250537863E-02
1.720000000E+01 9.999988488E-01 7.843737160E-11 7.208383573E-02
1.730000000E+01 9.999988621E-01 7.211231385E-11 7.166716616E-02
1.740000000E+01 9.999988751E-01 7.032172562E-11 7.125528590E-02
1.750000000E+01 9.999988880E-01 6.857813144E-11 7.084811283E-02
1.760000000E+01 9.999989006E-01 6.688009708E-11 7.044556674E-02
1.770000000E+01 9.999989130E-01 6.522623901E-11 7.004756919E-02
1.780000000E+01 9.999989251E-01 6.407432034E-11 6.965404352E-02
1.790000000E+01 9.999989371E-01 6.336040590E-11 6.926491478E-02
1.800000000E+01 9.999989489E-01 6.265835696E-11 6.888010970E-02
1.810000000E+01 9.999989605E-01 6.196791202E-11 6.849955661E-02
1.820000000E+01 9.999989719E-01 5.782288647E-11 6.812318542E-02
1.830000000E+01 9.999989831E-01 5.645760414E-11 6.775092757E-02
1.840000000E+01 9.999989941E-01 5.512640862E-11 6.738271601E-02
1.850000000E+01 9.999990050E-01 5.382830995E-11 6.701848511E-02
1.860000000E+01 9.999990156E-01 5.256235151E-11 6.665817068E-02
1.870000000E+01 9.999990261E-01 5.199403460E-11 6.630170987E-02
1.880000000E+01 9.999990365E-01 5.144237766E-11 6.594904120E-02
1.890000000E+01 9.999990466E-01 5.089945399E-11 6.560010448E-02
1.900000000E+01 9.999990567E-01 4.794042099E-11 6.525484077E-02
1.910000000E+01 9.999990665E-01 4.685391945E-11 6.491319239E-02
1.920000000E+01 9.999990762E-01 4.579343239E-11 6.457510284E-02
1.930000000E+01 9.999990858E-01 4.475823527E-11 6.424051682E-02
1.940000000E+01 9.999990952E-01 4.410442059E-11 6.390938013E-02
1.950000000E+01 9.999991044E-01 4.365322744E-11 6.358163972E-02
1.960000000E+01 9.999991135E-01 4.185782294E-11 6.325724360E-02
1.970000000E+01 9.999991225E-01 4.093851036E-11 6.293614084E-02
1.980000000E+01 9.999991314E-01 4.014756007E-11 6.261828154E-02
1.990000000E+01 9.999991401E-01 3.974508081E-11 6.230361681E-02
2.000000000E+01 9.999991486E-01 3.833291354E-11 6.199209873E-02
2.010000000E+01 9.999991571E-01 3.750697589E-11 6.168368033E-02
2.020000000E+01 9.999991654E-01 3.705375299E-11 6.137831557E-02
2.030000000E+01 9.999991736E-01 3.668959055E-11 6.107595934E-02
2.040000000E+01 9.999991817E-01 3.517213863E-11 6.077656738E-02
2.050000000E+01 9.999991897E-01 3.442928162E-11 6.048009632E-02
2.060000000E+01 9.999991975E-01 3.370300753E-11 6.018650362E-02
2.070000000E+01 9.999992053E-01 3.336384888E-11 5.989574756E-02
2.080000000E+01 9.999992129E-01 3.232589196E-11 5.960778724E-02
2.090000000E+01 9.999992204E-01 3.166019782E-11 5.932258252E-02
2.100000000E+01 9.999992278E-01 3.108266266E-11 5.904009403E-02
2.110000000E+01 9.999992351E-01 3.078873843E-11 5.876028316E-02
2.120000000E+01 9.999992423E-01 2.975841415E-11 5.848311201E-02
2.130000000E+01 9.999992494E-01 2.915283385E-11 5.820854341E-02
2.140000000E+01 9.999992564E-01 2.865962652E-11 5.793654087E-02
2.150000000E+01 9.999992633E-01 2.839364535E-11 5.766706859E-02
2.160000000E+01 9.999992701E-01 2.813134980E-11 5.740009142E-02
2.170000000E+01 9.999992768E-01 2.787267209E-11 5.713557487E-02
2.180000000E+01 9.999992835E-01 2.761754600E-11 5.687348507E-02
2.190000000E+01 9.999992900E-01 2.584869411E-11 5.661378879E-02
2.200000000E+01 9.999992964E-01 2.533926571E-11 5.635645339E-02
2.210000000E+01 9.999993028E-01 2.484044437E-11 5.610144681E-02
2.220000000E+01 9.999993091E-01 2.435197306E-11 5.584873759E-02
2.230000000E+01 9.999993152E-01 2.391523644E-11 5.559829482E-02
2.240000000E+01 9.999993213E-01 2.370218417E-11 5.535008815E-02
2.250000000E+01 9.999993274E-01 2.349196628E-11 5.510408776E-02
2.260000000E+01 9.999993333E-01 2.328453271E-11 5.486026436E-02
2.270000000E+01 9.999993392E-01 2.307983452E-11 5.461858919E-02
2.280000000E+01 9.999993449E-01 2.287782381E-11 5.437903397E-02
2.290000000E+01 9.999993506E-01 2.267845375E-11 5.414157094E-02
2.300000000E+01 9.999993563E-01 2.089947549E-11 5.390617281E-02
2.310000000E+01 9.999993619E-01 2.050760275E-11 5.367281275E-02
2.320000000E+01 9.999993673E-01 2.012350132E-11 5.344146442E-02
2.330000000E+01 9.999993728E-01 1.974699175E-11 5.321210191E-02
2.340000000E+01 9.999993781E-01 1.937789943E-11 5.298469977E-02
2.350000000E+01 9.999993834E-01 1.901605439E-11 5.275923296E-02
2.360000000E+01 9.999993886E-01 1.866129118E-11 5.253567689E-02
2.370000000E+01 9.999993938E-01 1.831344874E-11 5.231400737E-02
2.380000000E+01 9.999993988E-01 1.806910686E-11 5.209420061E-02
2.390000000E+01 9.999994039E-01 1.791821728E-11 5.187623325E-02
2.400000000E+01 9.999994088E-01 1.776920988E-11 5.166008227E-02
2.410000000E+01 9.999994137E-01 1.762205350E-11 5.144572509E-02
2.420000000E+01 9.999994186E-01 1.747671759E-11 5.123313945E-02
2.430000000E+01 9.999994233E-01 1.733317227E-11 5.102230348E-02
2.440000000E+01 9.999994280E-01 1.719138822E-11 5.081319568E-02
2.450000000E+01 9.999994327E-01 1.705133676E-11 5.060579488E-02
2.460000000E+01 9.999994373E-01 1.691298977E-11 5.040008027E-02
2.470000000E+01 9.999994419E-01 1.532714025E-11 5.019603136E-02
2.480000000E+01 9.999994464E-01 1.505914117E-11 4.999362801E-02
2.490000000E+01 9.999994508E-01 1.479609670E-11 4.979285038E-02
2.500000000E+01 9.999994552E-01 1.453790019E-11 4.959367898E-02
2.510000000E+01 9.999994595E-01 1.428444763E-11 4.939609460E-02
2.520000000E+01 9.999994638E-01 1.403563762E-11 4.920007836E-02
2.530000000E+01 9.999994680E-01 1.379137126E-11 4.900561164E-02
2.540000000E+01 9.999994722E-01 1.355155211E-11 4.881267616E-02
2.550000000E+01 9.999994763E-01 1.331608609E-11 4.862125391E-02
2.560000000E+01 9.999994804E-01 1.308488144E-11 4.843132713E-02
2.570000000E+01 9.999994845E-01 1.285784865E-11 4.824287839E-02
2.580000000E+01 9.999994884E-01 1.275097022E-11 4.805589049E-02
2.590000000E+01 9.999994924E-01 1.265269721E-11 4.787034651E-02
2.600000000E+01 9.999994963E-01 1.255555594E-11 4.768622979E-02
2.610000000E+01 9.999995001E-01 1.245952910E-11 4.750352393E-02
2.620000000E+01 9.999995039E-01 1.236459970E-11 4.732221277E-02
2.630000000E+01 9.999995077E-01 1.227075108E-11 4.714228040E-02
2.640000000E+01 9.999995114E-01 1.217796691E-11 4.696371116E-02
2.650000000E+01 9.999995151E-01 1.208623114E-11 4.678648961E-02
2.660000000E+01 9.999995188E-01 1.199552803E-11 4.661060055E-02
2.670000000E+01 9.999995223E-01 1.190584216E-11 4.643602901E-02
2.680000000E+01 9.999995259E-01 1.181715835E-11 4.626276025E-02
2.690000000E+01 9.999995294E-01 1.172946175E-11 4.609077972E-02
2.700000000E+01 9.999995329E-01 1.040566489E-11 4.592007313E-02
2.710000000E+01 9.999995364E-01 1.023899912E-11 4.575062637E-02
2.720000000E+01 9.999995398E-01 1.007515551E-11 4.558242554E-02
2.730000000E+01 9.999995431E-01 9.914078418E-12 4.541545694E-02
2.740000000E+01 9.999995464E-01 9.755713442E-12 4.524970710E-02
2.750000000E+01 9.999995497E-01 9.600007442E-12 4.508516271E-02
2.760000000E+01 9.999995530E-01 9.446908480E-12 4.492181067E-02
2.770000000E+01 9.999995562E-01 9.296365800E-12 4.475963807E-02
2.780000000E+01 9.999995594E-01 9.148329789E-12 4.459863218E-02
2.790000000E+01 9.999995626E-01 9.002751954E-12 4.443878045E-02
2.800000000E+01 9.999995657E-01 8.859584889E-12 4.428007052E-02
2.810000000E+01 9.999995688E-01 8.718782250E-12 4.412249020E-02
2.820000000E+01 9.999995718E-01 8.580298725E-12 4.396602747E-02
2.830000000E+01 9.999995748E-01 8.444090010E-12 4.381067048E-02
2.840000000E+01 9.999995778E-01 8.310112782E-12 4.365640756E-02
2.850000000E+01 9.999995808E-01 8.245431438E-12 4.350322718E-02
2.860000000E+01 9.999995837E-01 8.187871883E-12 4.335111799E-02
2.870000000E+01 9.999995866E-01 8.130912947E-12 4.320006880E-02
2.880000000E+01 9.999995895E-01 8.074546303E-12 4.305006856E-02
2.890000000E+01 9.999995923E-01 8.018763766E-12 4.290110639E-02
2.900000000E+01 9.999995951E-01 7.963557295E-12 4.275317154E-02
2.910000000E+01 9.999995979E-01 7.908918985E-12 4.260625342E-02
2.920000000E+01 9.999996006E-01 7.854841065E-12 4.246034160E-02
2.930000000E+01 9.999996034E-01 7.801315898E-12 4.231542575E-02
2.940000000E+01 9.999996061E-01 7.748335977E-12 4.217149573E-02
2.950000000E+01 9.999996087E-01 7.695893922E-12 4.202854151E-02
2.960000000E+01 9.999996114E-01 7.643982475E-12 4.188655320E-02
2.970000000E+01 9.999996140E-01 6.856219714E-12 4.174552103E-02
2.980000000E+01 9.999996166E-01 6.756280135E-12 4.160543539E-02
2.990000000E+01 9.999996191E-01 6.657880727E-12 4.146628678E-02
3.000000000E+01 9.999996217E-01 6.560993837E-12 4.132806582E-02
3.010000000E+01 9.999996242E-01 6.465592389E-12 4.119076328E-02
3.020000000E+01 9.999996267E-01 6.371649869E-12 4.105437002E-02
3.030000000E+01 9.999996291E-01 6.279140312E-12 4.091887705E-02
3.040000000E+01 9.999996316E-01 6.188038291E-12 4.078427548E-02
3.050000000E+01 9.999996340E-01 6.098318902E-12 4.065055654E-02
3.060000000E+01 9.999996364E-01 6.009957753E-12 4.051771159E-02
3.070000000E+01 9.999996387E-01 5.922930952E-12 4.038573207E-02
3.080000000E+01 9.999996411E-01 5.837215093E-12 4.025460956E-02
3.090000000E+01 9.999996434E-01 5.752787249E-12 4.012433575E-02
3.100000000E+01 9.999996457E-01 5.669624955E-12 3.999490241E-02
3.110000000E+01 9.999996480E-01 5.621702130E-12 3.986630143E-02
3.120000000E+01 9.999996502E-01 5.585723329E-12 3.973852483E-02
3.130000000E+01 9.999996524E-01 5.550088821E-12 3.961156468E-02
3.140000000E+01 9.999996547E-01 5.514794228E-12 3.948541320E-02
3.150000000E+01 9.999996568E-01 5.479835240E-12 3.936006269E-02
3.160000000E+01 9.999996590E-01 5.445207616E-12 3.923550552E-02
3.170000000E+01 9.999996612E-01 5.410907181E-12 3.911173421E-02
