# 04/03/2022 
# Density retrieved from www.chemicool.com/densities.html 
# Includes the real (n) and complex (k) part of the  refractive index. 
# Element, Bi  (Z = 83) 
# Nominal density, g cm-3 =  89.807 
#    E [keV]      n       k    Wavelength [nm] 
1.000000000E+00 9.904422030E-01 4.766447623E-03 1.239841975E+00
1.100000000E+00 9.919245373E-01 3.809849064E-03 1.127129068E+00
1.200000000E+00 9.929514374E-01 2.830256987E-03 1.033201645E+00
1.300000000E+00 9.939205380E-01 2.307727661E-03 9.537245958E-01
1.400000000E+00 9.946871155E-01 1.784555061E-03 8.856014104E-01
1.500000000E+00 9.953351305E-01 1.448125689E-03 8.265613164E-01
1.600000000E+00 9.958894017E-01 1.242032829E-03 7.749012341E-01
1.700000000E+00 9.963696542E-01 9.842331445E-04 7.293188086E-01
1.800000000E+00 9.967668708E-01 8.240663682E-04 6.888010970E-01
1.900000000E+00 9.971003857E-01 7.167696984E-04 6.525484077E-01
2.000000000E+00 9.974321403E-01 5.915337503E-04 6.199209873E-01
2.100000000E+00 9.976972784E-01 5.067392399E-04 5.904009403E-01
2.200000000E+00 9.979099732E-01 4.525611319E-04 5.635645339E-01
2.300000000E+00 9.981752944E-01 3.788512477E-04 5.390617281E-01
2.400000000E+00 9.984054740E-01 3.303543300E-04 5.166008227E-01
2.500000000E+00 9.986584998E-01 2.897452740E-04 4.959367898E-01
2.600000000E+00 9.990224436E-01 5.272939698E-04 4.768622979E-01
2.700000000E+00 9.989925608E-01 7.245661214E-04 4.592007313E-01
2.800000000E+00 9.988225897E-01 7.587151905E-04 4.428007052E-01
2.900000000E+00 9.988240706E-01 6.853387834E-04 4.275317154E-01
3.000000000E+00 9.988337090E-01 6.104168114E-04 4.132806582E-01
3.100000000E+00 9.988783160E-01 5.364689485E-04 3.999490241E-01
3.200000000E+00 9.989322757E-01 5.431290650E-04 3.874506171E-01
3.300000000E+00 9.989521434E-01 5.069785010E-04 3.757096893E-01
3.400000000E+00 9.989757008E-01 4.558079317E-04 3.646594043E-01
3.500000000E+00 9.990085504E-01 4.074163826E-04 3.542405642E-01
3.600000000E+00 9.990528629E-01 3.699912319E-04 3.444005485E-01
3.700000000E+00 9.991002941E-01 3.479234617E-04 3.350924256E-01
3.800000000E+00 9.991278464E-01 3.266462933E-04 3.262742038E-01
3.900000000E+00 9.991619671E-01 2.984143892E-04 3.179081986E-01
4.000000000E+00 9.991991376E-01 2.822743848E-04 3.099604936E-01
4.100000000E+00 9.992229547E-01 2.626261084E-04 3.024004816E-01
4.200000000E+00 9.992514657E-01 2.417060189E-04 2.952004701E-01
4.300000000E+00 9.992804658E-01 2.248397157E-04 2.883353429E-01
4.400000000E+00 9.993128003E-01 2.147358648E-04 2.817822670E-01
4.500000000E+00 9.993330674E-01 1.910191649E-04 2.755204388E-01
4.600000000E+00 9.993596830E-01 1.798346619E-04 2.695308640E-01
4.700000000E+00 9.993866407E-01 1.722635331E-04 2.637961648E-01
4.800000000E+00 9.994055438E-01 1.531361876E-04 2.583004114E-01
4.900000000E+00 9.994272665E-01 1.426323191E-04 2.530289744E-01
5.000000000E+00 9.994498389E-01 1.367809600E-04 2.479683949E-01
5.100000000E+00 9.994712023E-01 1.314695886E-04 2.431062695E-01
5.200000000E+00 9.994872621E-01 1.162393294E-04 2.384311490E-01
5.300000000E+00 9.995051951E-01 1.088071789E-04 2.339324480E-01
5.400000000E+00 9.995229257E-01 1.037485370E-04 2.296003657E-01
5.500000000E+00 9.995401161E-01 1.000101599E-04 2.254258136E-01
5.600000000E+00 9.995545209E-01 8.987874654E-05 2.214003526E-01
5.700000000E+00 9.995693716E-01 8.448960857E-05 2.175161359E-01
5.800000000E+00 9.995834932E-01 7.949086785E-05 2.137658577E-01
5.900000000E+00 9.995973719E-01 7.639518969E-05 2.101427076E-01
6.000000000E+00 9.996106810E-01 7.386990426E-05 2.066403291E-01
6.100000000E+00 9.996225488E-01 6.670115342E-05 2.032527827E-01
6.200000000E+00 9.996343682E-01 6.301282028E-05 1.999745120E-01
6.300000000E+00 9.996456412E-01 5.957097809E-05 1.968003134E-01
6.400000000E+00 9.996564010E-01 5.635593142E-05 1.937253085E-01
6.500000000E+00 9.996668880E-01 5.461140014E-05 1.907449192E-01
6.600000000E+00 9.996769059E-01 5.296904628E-05 1.878548446E-01
6.700000000E+00 9.996864785E-01 5.139968046E-05 1.850510410E-01
6.800000000E+00 9.996953925E-01 4.561259961E-05 1.823297021E-01
6.900000000E+00 9.997041036E-01 4.333001426E-05 1.796872427E-01
7.000000000E+00 9.997124463E-01 4.118524312E-05 1.771202821E-01
7.100000000E+00 9.997204410E-01 3.916833270E-05 1.746256302E-01
7.200000000E+00 9.997281070E-01 3.727016852E-05 1.722002742E-01
7.300000000E+00 9.997354832E-01 3.586558977E-05 1.698413664E-01
7.400000000E+00 9.997425840E-01 3.490279910E-05 1.675462128E-01
7.500000000E+00 9.997494027E-01 3.397826273E-05 1.653122633E-01
7.600000000E+00 9.997559540E-01 3.308998059E-05 1.631371019E-01
7.700000000E+00 9.997624974E-01 2.942246921E-05 1.610184383E-01
7.800000000E+00 9.997685977E-01 2.810636197E-05 1.589540993E-01
7.900000000E+00 9.997744659E-01 2.686102405E-05 1.569420221E-01
8.000000000E+00 9.997801137E-01 2.568190349E-05 1.549802468E-01
8.100000000E+00 9.997855520E-01 2.456479033E-05 1.530669104E-01
8.200000000E+00 9.997907717E-01 2.372682759E-05 1.512002408E-01
8.300000000E+00 9.997957830E-01 2.315854096E-05 1.493785512E-01
8.400000000E+00 9.998006164E-01 2.261042924E-05 1.476002351E-01
8.500000000E+00 9.998052802E-01 2.208154861E-05 1.458637617E-01
8.600000000E+00 9.998097822E-01 2.157100983E-05 1.441676715E-01
8.700000000E+00 9.998141299E-01 2.107797446E-05 1.425105718E-01
8.800000000E+00 9.998189506E-01 1.833108948E-05 1.408911335E-01
8.900000000E+00 9.998230820E-01 1.760769135E-05 1.393080870E-01
9.000000000E+00 9.998270736E-01 1.691855819E-05 1.377602194E-01
9.100000000E+00 9.998309317E-01 1.626174744E-05 1.362463708E-01
9.200000000E+00 9.998346622E-01 1.563544530E-05 1.347654320E-01
9.300000000E+00 9.998382706E-01 1.503795701E-05 1.333163414E-01
9.400000000E+00 9.998417622E-01 1.446769784E-05 1.318980824E-01
9.500000000E+00 9.998450947E-01 1.409628293E-05 1.305096815E-01
9.600000000E+00 9.998483051E-01 1.380413991E-05 1.291502057E-01
9.700000000E+00 9.998514167E-01 1.352098559E-05 1.278187603E-01
9.800000000E+00 9.998544335E-01 1.324645496E-05 1.265144872E-01
9.900000000E+00 9.998573594E-01 1.298020135E-05 1.252365631E-01
1.000000000E+01 9.998601980E-01 1.272189534E-05 1.239841975E-01
1.010000000E+01 9.998637045E-01 1.121052947E-05 1.227566311E-01
1.020000000E+01 9.998664652E-01 1.082173948E-05 1.215531348E-01
1.030000000E+01 9.998691431E-01 1.044909963E-05 1.203730072E-01
1.040000000E+01 9.998717413E-01 1.009180672E-05 1.192155745E-01
1.050000000E+01 9.998742630E-01 9.749104299E-06 1.180801881E-01
1.060000000E+01 9.998767111E-01 9.420279533E-06 1.169662240E-01
1.070000000E+01 9.998790885E-01 9.104660353E-06 1.158730817E-01
1.080000000E+01 9.998813274E-01 8.919845965E-06 1.148001828E-01
1.090000000E+01 9.998834948E-01 8.756929832E-06 1.137469701E-01
1.100000000E+01 9.998856035E-01 8.598436639E-06 1.127129068E-01
1.110000000E+01 9.998876554E-01 8.444207722E-06 1.116974752E-01
1.120000000E+01 9.998896526E-01 8.294091465E-06 1.107001763E-01
1.130000000E+01 9.998923947E-01 7.490146574E-06 1.097205287E-01
1.140000000E+01 9.998943996E-01 7.255948470E-06 1.087580679E-01
1.150000000E+01 9.998963492E-01 7.030494826E-06 1.078123456E-01
1.160000000E+01 9.998982455E-01 6.813394818E-06 1.068829288E-01
1.170000000E+01 9.999000904E-01 6.604278073E-06 1.059693995E-01
1.180000000E+01 9.999018491E-01 6.433051182E-06 1.050713538E-01
1.190000000E+01 9.999034918E-01 6.325386954E-06 1.041884012E-01
1.200000000E+01 9.999050935E-01 6.220403101E-06 1.033201645E-01
1.210000000E+01 9.999066557E-01 6.118011383E-06 1.024662789E-01
1.220000000E+01 9.999089943E-01 5.682425975E-06 1.016263914E-01
1.230000000E+01 9.999106447E-01 5.517575769E-06 1.008001605E-01
1.240000000E+01 9.999122512E-01 5.358438527E-06 9.998725601E-02
1.250000000E+01 9.999137551E-01 5.229553522E-06 9.918735797E-02
1.260000000E+01 9.999151186E-01 5.146874136E-06 9.840015671E-02
1.270000000E+01 9.999171573E-01 4.916120427E-06 9.762535233E-02
1.280000000E+01 9.999187333E-01 4.778796003E-06 9.686265426E-02
1.290000000E+01 9.999202025E-01 4.659563942E-06 9.611178098E-02
1.300000000E+01 9.999220616E-01 4.524810470E-06 9.537245958E-02
1.310000000E+01 9.999237474E-01 4.406166976E-06 9.464442554E-02
1.320000000E+01 9.999258090E-01 4.427176003E-06 9.392742232E-02
1.330000000E+01 9.999278063E-01 4.717909735E-06 9.322120110E-02
1.340000000E+01 9.999300438E-01 6.503855330E-06 9.252552049E-02
1.350000000E+01 9.999309071E-01 7.976800265E-06 9.184014627E-02
1.360000000E+01 9.999310352E-01 8.934259284E-06 9.116485107E-02
1.370000000E+01 9.999310039E-01 9.231956570E-06 9.049941420E-02
1.380000000E+01 9.999309857E-01 9.099797227E-06 8.984362135E-02
1.390000000E+01 9.999314609E-01 8.847209255E-06 8.919726436E-02
1.400000000E+01 9.999320484E-01 8.629086691E-06 8.856014104E-02
1.410000000E+01 9.999330088E-01 8.507122335E-06 8.793205493E-02
1.420000000E+01 9.999335197E-01 8.183122163E-06 8.731281511E-02
1.430000000E+01 9.999342455E-01 7.973431826E-06 8.670223598E-02
1.440000000E+01 9.999351031E-01 7.838034830E-06 8.610013712E-02
1.450000000E+01 9.999359951E-01 7.730296800E-06 8.550634307E-02
1.460000000E+01 9.999366368E-01 7.388980874E-06 8.492068319E-02
1.470000000E+01 9.999374143E-01 7.205824107E-06 8.434299147E-02
1.480000000E+01 9.999382103E-01 7.061086195E-06 8.377310639E-02
1.490000000E+01 9.999390369E-01 6.966624567E-06 8.321087078E-02
1.500000000E+01 9.999398730E-01 6.687532171E-06 8.265613164E-02
1.510000000E+01 9.999406771E-01 6.524635188E-06 8.210874004E-02
1.520000000E+01 9.999414634E-01 6.379110570E-06 8.156855096E-02
1.530000000E+01 9.999422261E-01 6.295996011E-06 8.103542318E-02
1.540000000E+01 9.999432394E-01 6.074942185E-06 8.050921913E-02
1.550000000E+01 9.999440052E-01 5.977981567E-06 7.998980481E-02
1.560000000E+01 9.999452286E-01 5.997738807E-06 7.947704965E-02
1.570000000E+01 9.999462134E-01 6.347040270E-06 7.897082641E-02
1.580000000E+01 9.999469120E-01 6.778174163E-06 7.847101105E-02
1.590000000E+01 9.999475364E-01 6.953568083E-06 7.797748268E-02
1.600000000E+01 9.999476947E-01 7.258305761E-06 7.749012341E-02
1.610000000E+01 9.999481228E-01 7.194128027E-06 7.700881830E-02
1.620000000E+01 9.999486600E-01 7.117450209E-06 7.653345522E-02
1.630000000E+01 9.999491638E-01 7.249264989E-06 7.606392482E-02
1.640000000E+01 9.999497133E-01 7.282035029E-06 7.560012040E-02
1.650000000E+01 9.999500011E-01 7.349820034E-06 7.514193785E-02
1.660000000E+01 9.999503314E-01 7.393125825E-06 7.468927558E-02
1.670000000E+01 9.999509209E-01 7.306610592E-06 7.424203441E-02
1.680000000E+01 9.999510437E-01 7.137120001E-06 7.380011753E-02
1.690000000E+01 9.999515395E-01 7.038181089E-06 7.336343045E-02
1.700000000E+01 9.999521080E-01 6.955622494E-06 7.293188086E-02
1.710000000E+01 9.999523074E-01 6.714220313E-06 7.250537863E-02
1.720000000E+01 9.999527286E-01 6.577572745E-06 7.208383573E-02
1.730000000E+01 9.999532579E-01 6.494773947E-06 7.166716616E-02
1.740000000E+01 9.999537936E-01 6.420335892E-06 7.125528590E-02
1.750000000E+01 9.999540693E-01 6.188035361E-06 7.084811283E-02
1.760000000E+01 9.999545055E-01 6.064476204E-06 7.044556674E-02
1.770000000E+01 9.999549358E-01 5.943903463E-06 7.004756919E-02
1.780000000E+01 9.999553888E-01 5.844397413E-06 6.965404352E-02
1.790000000E+01 9.999558859E-01 5.779279287E-06 6.926491478E-02
1.800000000E+01 9.999563747E-01 5.715243446E-06 6.888010970E-02
1.810000000E+01 9.999568554E-01 5.652266037E-06 6.849955661E-02
1.820000000E+01 9.999570830E-01 5.385219919E-06 6.812318542E-02
1.830000000E+01 9.999574967E-01 5.281327208E-06 6.775092757E-02
1.840000000E+01 9.999579046E-01 5.179854737E-06 6.738271601E-02
1.850000000E+01 9.999583067E-01 5.080734641E-06 6.701848511E-02
1.860000000E+01 9.999587523E-01 5.024961582E-06 6.665817068E-02
1.870000000E+01 9.999591923E-01 4.971362375E-06 6.630170987E-02
1.880000000E+01 9.999596253E-01 4.918616197E-06 6.594904120E-02
1.890000000E+01 9.999600514E-01 4.866705044E-06 6.560010448E-02
1.900000000E+01 9.999602915E-01 4.619943692E-06 6.525484077E-02
1.910000000E+01 9.999606716E-01 4.533951022E-06 6.491319239E-02
1.920000000E+01 9.999610463E-01 4.449883623E-06 6.457510284E-02
1.930000000E+01 9.999614158E-01 4.367689664E-06 6.424051682E-02
1.940000000E+01 9.999618056E-01 4.315281899E-06 6.390938013E-02
1.950000000E+01 9.999621964E-01 4.271136082E-06 6.358163972E-02
1.960000000E+01 9.999625811E-01 4.227664242E-06 6.325724360E-02
1.970000000E+01 9.999629601E-01 4.184852728E-06 6.293614084E-02
1.980000000E+01 9.999632197E-01 3.987220755E-06 6.261828154E-02
1.990000000E+01 9.999635656E-01 3.916048835E-06 6.230361681E-02
2.000000000E+01 9.999639067E-01 3.846406321E-06 6.199209873E-02
2.010000000E+01 9.999642431E-01 3.778253680E-06 6.168368033E-02
2.020000000E+01 9.999645747E-01 3.711552577E-06 6.137831557E-02
2.030000000E+01 9.999649043E-01 3.649654387E-06 6.107595934E-02
2.040000000E+01 9.999652476E-01 3.613961160E-06 6.077656738E-02
2.050000000E+01 9.999655858E-01 3.578788998E-06 6.048009632E-02
2.060000000E+01 9.999659191E-01 3.544127808E-06 6.018650362E-02
2.070000000E+01 9.999662476E-01 3.509967739E-06 5.989574756E-02
2.080000000E+01 9.999664929E-01 3.343072919E-06 5.960778724E-02
2.090000000E+01 9.999667981E-01 3.286131287E-06 5.932258252E-02
2.100000000E+01 9.999670991E-01 3.230356150E-06 5.904009403E-02
2.110000000E+01 9.999673960E-01 3.175718765E-06 5.876028316E-02
2.120000000E+01 9.999676890E-01 3.122191221E-06 5.848311201E-02
2.130000000E+01 9.999679780E-01 3.069746415E-06 5.820854341E-02
2.140000000E+01 9.999682720E-01 3.033309093E-06 5.793654087E-02
2.150000000E+01 9.999685664E-01 3.005157885E-06 5.766706859E-02
2.160000000E+01 9.999688568E-01 2.977396760E-06 5.740009142E-02
2.170000000E+01 9.999691432E-01 2.950018544E-06 5.713557487E-02
2.180000000E+01 9.999694256E-01 2.923016228E-06 5.687348507E-02
2.190000000E+01 9.999697042E-01 2.896382962E-06 5.661378879E-02
2.200000000E+01 9.999699151E-01 2.733591086E-06 5.635645339E-02
2.210000000E+01 9.999701776E-01 2.689292449E-06 5.610144681E-02
2.220000000E+01 9.999704366E-01 2.645854391E-06 5.584873759E-02
2.230000000E+01 9.999706923E-01 2.603256817E-06 5.559829482E-02
2.240000000E+01 9.999709447E-01 2.561480187E-06 5.535008815E-02
2.250000000E+01 9.999711939E-01 2.520505494E-06 5.510408776E-02
2.260000000E+01 9.999714452E-01 2.491870909E-06 5.486026436E-02
2.270000000E+01 9.999716963E-01 2.469964457E-06 5.461858919E-02
2.280000000E+01 9.999719440E-01 2.448345617E-06 5.437903397E-02
2.290000000E+01 9.999721885E-01 2.427009373E-06 5.414157094E-02
2.300000000E+01 9.999724298E-01 2.405950823E-06 5.390617281E-02
2.310000000E+01 9.999726680E-01 2.385165168E-06 5.367281275E-02
2.320000000E+01 9.999729031E-01 2.364647713E-06 5.344146442E-02
2.330000000E+01 9.999730913E-01 2.222993712E-06 5.321210191E-02
2.340000000E+01 9.999733154E-01 2.188872540E-06 5.298469977E-02
2.350000000E+01 9.999735366E-01 2.155378353E-06 5.275923296E-02
2.360000000E+01 9.999737551E-01 2.122497307E-06 5.253567689E-02
2.370000000E+01 9.999739709E-01 2.090215917E-06 5.231400737E-02
2.380000000E+01 9.999741841E-01 2.058521050E-06 5.209420061E-02
2.390000000E+01 9.999743946E-01 2.027399906E-06 5.187623325E-02
2.400000000E+01 9.999746056E-01 2.005140885E-06 5.166008227E-02
2.410000000E+01 9.999748159E-01 1.988535234E-06 5.144572509E-02
2.420000000E+01 9.999750236E-01 1.972135014E-06 5.123313945E-02
2.430000000E+01 9.999752287E-01 1.955936848E-06 5.102230348E-02
2.440000000E+01 9.999754314E-01 1.939937432E-06 5.081319568E-02
2.450000000E+01 9.999756315E-01 1.924133527E-06 5.060579488E-02
2.460000000E+01 9.999758292E-01 1.908521960E-06 5.040008027E-02
2.470000000E+01 9.999759994E-01 1.800340063E-06 5.019603136E-02
2.480000000E+01 9.999761894E-01 1.774174258E-06 4.999362801E-02
2.490000000E+01 9.999763772E-01 1.748462901E-06 4.979285038E-02
2.500000000E+01 9.999765627E-01 1.723196513E-06 4.959367898E-02
2.510000000E+01 9.999767461E-01 1.698365844E-06 4.939609460E-02
2.520000000E+01 9.999769273E-01 1.673961874E-06 4.920007836E-02
2.530000000E+01 9.999771064E-01 1.649975799E-06 4.900561164E-02
2.540000000E+01 9.999772842E-01 1.628995179E-06 4.881267616E-02
2.550000000E+01 9.999774620E-01 1.616243798E-06 4.862125391E-02
2.560000000E+01 9.999776377E-01 1.603641556E-06 4.843132713E-02
2.570000000E+01 9.999778114E-01 1.591186134E-06 4.824287839E-02
2.580000000E+01 9.999779831E-01 1.578875263E-06 4.805589049E-02
2.590000000E+01 9.999781528E-01 1.566706713E-06 4.787034651E-02
2.600000000E+01 9.999783205E-01 1.554678299E-06 4.768622979E-02
2.610000000E+01 9.999784863E-01 1.542787877E-06 4.750352393E-02
2.620000000E+01 9.999786350E-01 1.453283556E-06 4.732221277E-02
2.630000000E+01 9.999787954E-01 1.433224052E-06 4.714228040E-02
2.640000000E+01 9.999789540E-01 1.413494084E-06 4.696371116E-02
2.650000000E+01 9.999791109E-01 1.394087156E-06 4.678648961E-02
2.660000000E+01 9.999792659E-01 1.374996924E-06 4.661060055E-02
2.670000000E+01 9.999794193E-01 1.356217187E-06 4.643602901E-02
2.680000000E+01 9.999795710E-01 1.337741891E-06 4.626276025E-02
2.690000000E+01 9.999797213E-01 1.321085768E-06 4.609077972E-02
2.700000000E+01 9.999798712E-01 1.311318069E-06 4.592007313E-02
2.710000000E+01 9.999800195E-01 1.301658301E-06 4.575062637E-02
2.720000000E+01 9.999801661E-01 1.292104877E-06 4.558242554E-02
2.730000000E+01 9.999803112E-01 1.282656245E-06 4.541545694E-02
2.740000000E+01 9.999804546E-01 1.273310875E-06 4.524970710E-02
2.750000000E+01 9.999805965E-01 1.264067270E-06 4.508516271E-02
2.760000000E+01 9.999807369E-01 1.254923956E-06 4.492181067E-02
2.770000000E+01 9.999808757E-01 1.245879488E-06 4.475963807E-02
2.780000000E+01 9.999810130E-01 1.236932447E-06 4.459863218E-02
2.790000000E+01 9.999811406E-01 1.155920409E-06 4.443878045E-02
2.800000000E+01 9.999812743E-01 1.140925000E-06 4.428007052E-02
2.810000000E+01 9.999814066E-01 1.126161118E-06 4.412249020E-02
2.820000000E+01 9.999815375E-01 1.111624471E-06 4.396602747E-02
2.830000000E+01 9.999816670E-01 1.097310864E-06 4.381067048E-02
2.840000000E+01 9.999817951E-01 1.083216192E-06 4.365640756E-02
2.850000000E+01 9.999819220E-01 1.069336436E-06 4.350322718E-02
2.860000000E+01 9.999820474E-01 1.055667668E-06 4.335111799E-02
2.870000000E+01 9.999821716E-01 1.042206041E-06 4.320006880E-02
2.880000000E+01 9.999822945E-01 1.028961320E-06 4.305006856E-02
2.890000000E+01 9.999824168E-01 1.021852800E-06 4.290110639E-02
2.900000000E+01 9.999825379E-01 1.014817690E-06 4.275317154E-02
2.910000000E+01 9.999826577E-01 1.007854982E-06 4.260625342E-02
2.920000000E+01 9.999827763E-01 1.000963686E-06 4.246034160E-02
2.930000000E+01 9.999828937E-01 9.941428289E-07 4.231542575E-02
2.940000000E+01 9.999830098E-01 9.873914540E-07 4.217149573E-02
2.950000000E+01 9.999831248E-01 9.807086208E-07 4.202854151E-02
2.960000000E+01 9.999832387E-01 9.740934044E-07 4.188655320E-02
2.970000000E+01 9.999833513E-01 9.675448959E-07 4.174552103E-02
2.980000000E+01 9.999834629E-01 9.610622013E-07 4.160543539E-02
2.990000000E+01 9.999835733E-01 9.546444416E-07 4.146628678E-02
3.000000000E+01 9.999836826E-01 9.482907525E-07 4.132806582E-02
3.010000000E+01 9.999837882E-01 8.767839859E-07 4.119076328E-02
3.020000000E+01 9.999838952E-01 8.662354936E-07 4.105437002E-02
3.030000000E+01 9.999840011E-01 8.558380824E-07 4.091887705E-02
3.040000000E+01 9.999841060E-01 8.455891545E-07 4.078427548E-02
3.050000000E+01 9.999842098E-01 8.354861651E-07 4.065055654E-02
3.060000000E+01 9.999843127E-01 8.255266203E-07 4.051771159E-02
3.070000000E+01 9.999844145E-01 8.157080765E-07 4.038573207E-02
3.080000000E+01 9.999845154E-01 8.060281389E-07 4.025460956E-02
3.090000000E+01 9.999846153E-01 7.964844607E-07 4.012433575E-02
3.100000000E+01 9.999847142E-01 7.870747416E-07 3.999490241E-02
3.110000000E+01 9.999848122E-01 7.777967271E-07 3.986630143E-02
3.120000000E+01 9.999849092E-01 7.686482071E-07 3.973852483E-02
3.130000000E+01 9.999850053E-01 7.596270154E-07 3.961156468E-02
3.140000000E+01 9.999851005E-01 7.517261645E-07 3.948541320E-02
3.150000000E+01 9.999851950E-01 7.469608759E-07 3.936006269E-02
3.160000000E+01 9.999852885E-01 7.422407558E-07 3.923550552E-02
3.170000000E+01 9.999853812E-01 7.375652352E-07 3.911173421E-02
