# 04/03/2022 
# Density retrieved from www.chemicool.com/densities.html 
# Includes the real (n) and complex (k) part of the  refractive index. 
# Element, Br  (Z = 35) 
# Nominal density, g cm-3 =  3.122 
#    E [keV]      n       k    Wavelength [nm] 
1.000000000E+00 9.995604645E-01 8.296282542E-05 1.239841975E+00
1.100000000E+00 9.996448341E-01 5.867721198E-05 1.127129068E+00
1.200000000E+00 9.997040184E-01 4.630175723E-05 1.033201645E+00
1.300000000E+00 9.997594962E-01 3.359839779E-05 9.537245958E-01
1.400000000E+00 9.998049265E-01 2.604392766E-05 8.856014104E-01
1.500000000E+00 9.998524684E-01 2.056662545E-05 8.265613164E-01
1.600000000E+00 9.998967361E-01 7.663068504E-05 7.749012341E-01
1.700000000E+00 9.998669785E-01 8.008444283E-05 7.293188086E-01
1.800000000E+00 9.998687655E-01 7.471177503E-05 6.888010970E-01
1.900000000E+00 9.998715199E-01 6.315828742E-05 6.525484077E-01
2.000000000E+00 9.998767628E-01 5.230419286E-05 6.199209873E-01
2.100000000E+00 9.998843153E-01 4.417948799E-05 5.904009403E-01
2.200000000E+00 9.998919812E-01 3.759120363E-05 5.635645339E-01
2.300000000E+00 9.998993476E-01 3.220983137E-05 5.390617281E-01
2.400000000E+00 9.999062348E-01 2.776152432E-05 5.166008227E-01
2.500000000E+00 9.999126225E-01 2.405883866E-05 4.959367898E-01
2.600000000E+00 9.999188763E-01 2.167048283E-05 4.768622979E-01
2.700000000E+00 9.999240390E-01 1.870422563E-05 4.592007313E-01
2.800000000E+00 9.999289678E-01 1.646915628E-05 4.428007052E-01
2.900000000E+00 9.999334142E-01 1.438925286E-05 4.275317154E-01
3.000000000E+00 9.999375610E-01 1.279995437E-05 4.132806582E-01
3.100000000E+00 9.999413399E-01 1.136255530E-05 3.999490241E-01
3.200000000E+00 9.999447970E-01 1.007566149E-05 3.874506171E-01
3.300000000E+00 9.999479723E-01 8.942536756E-06 3.757096893E-01
3.400000000E+00 9.999509194E-01 8.046591361E-06 3.646594043E-01
3.500000000E+00 9.999536307E-01 7.225669004E-06 3.542405642E-01
3.600000000E+00 9.999561351E-01 6.525063499E-06 3.444005485E-01
3.700000000E+00 9.999584502E-01 5.931297331E-06 3.350924256E-01
3.800000000E+00 9.999605892E-01 5.361055176E-06 3.262742038E-01
3.900000000E+00 9.999625756E-01 4.876341678E-06 3.179081986E-01
4.000000000E+00 9.999644185E-01 4.447056912E-06 3.099604936E-01
4.100000000E+00 9.999661319E-01 4.063601152E-06 3.024004816E-01
4.200000000E+00 9.999677296E-01 3.720619725E-06 2.952004701E-01
4.300000000E+00 9.999692163E-01 3.459385180E-06 2.883353429E-01
4.400000000E+00 9.999706098E-01 3.147843807E-06 2.817822670E-01
4.500000000E+00 9.999719131E-01 2.886891710E-06 2.755204388E-01
4.600000000E+00 9.999731260E-01 2.709895891E-06 2.695308640E-01
4.700000000E+00 9.999742748E-01 2.460534010E-06 2.637961648E-01
4.800000000E+00 9.999753432E-01 2.299159921E-06 2.583004114E-01
4.900000000E+00 9.999763539E-01 2.109801334E-06 2.530289744E-01
5.000000000E+00 9.999772932E-01 2.008111119E-06 2.479683949E-01
5.100000000E+00 9.999781951E-01 1.819222900E-06 2.431062695E-01
5.200000000E+00 9.999790271E-01 1.741998106E-06 2.384311490E-01
5.300000000E+00 9.999798326E-01 1.577539714E-06 2.339324480E-01
5.400000000E+00 9.999805728E-01 1.518965978E-06 2.296003657E-01
5.500000000E+00 9.999812728E-01 1.464232989E-06 2.254258136E-01
5.600000000E+00 9.999819357E-01 1.412405865E-06 2.214003526E-01
5.700000000E+00 9.999826076E-01 1.206772959E-06 2.175161359E-01
5.800000000E+00 9.999832119E-01 1.130857321E-06 2.137658577E-01
5.900000000E+00 9.999837852E-01 1.060487016E-06 2.101427076E-01
6.000000000E+00 9.999843296E-01 9.951837591E-07 2.066403291E-01
6.100000000E+00 9.999848436E-01 9.467926196E-07 2.032527827E-01
6.200000000E+00 9.999853286E-01 9.164972262E-07 1.999745120E-01
6.300000000E+00 9.999857907E-01 8.876329900E-07 1.968003134E-01
6.400000000E+00 9.999862312E-01 8.601111664E-07 1.937253085E-01
6.500000000E+00 9.999866919E-01 7.393340379E-07 1.907449192E-01
6.600000000E+00 9.999871002E-01 6.981440715E-07 1.878548446E-01
6.700000000E+00 9.999874900E-01 6.596145332E-07 1.850510410E-01
6.800000000E+00 9.999878624E-01 6.235423356E-07 1.823297021E-01
6.900000000E+00 9.999882184E-01 5.897423861E-07 1.796872427E-01
7.000000000E+00 9.999885538E-01 5.702047317E-07 1.771202821E-01
7.100000000E+00 9.999888740E-01 5.542557400E-07 1.746256302E-01
7.200000000E+00 9.999891809E-01 5.389666639E-07 1.722002742E-01
7.300000000E+00 9.999894753E-01 5.243015923E-07 1.698413664E-01
7.400000000E+00 9.999897899E-01 4.545971634E-07 1.675462128E-01
7.500000000E+00 9.999900664E-01 4.321790077E-07 1.653122633E-01
7.600000000E+00 9.999903317E-01 4.110415076E-07 1.631371019E-01
7.700000000E+00 9.999905866E-01 3.910981129E-07 1.610184383E-01
7.800000000E+00 9.999908315E-01 3.722690722E-07 1.589540993E-01
7.900000000E+00 9.999910664E-01 3.555974105E-07 1.569420221E-01
8.000000000E+00 9.999912884E-01 3.467630374E-07 1.549802468E-01
8.100000000E+00 9.999915021E-01 3.382538392E-07 1.530669104E-01
8.200000000E+00 9.999917081E-01 3.300540510E-07 1.512002408E-01
8.300000000E+00 9.999919067E-01 3.221488517E-07 1.493785512E-01
8.400000000E+00 9.999921259E-01 2.819833401E-07 1.476002351E-01
8.500000000E+00 9.999923149E-01 2.696441422E-07 1.458637617E-01
8.600000000E+00 9.999924973E-01 2.579297485E-07 1.441676715E-01
8.700000000E+00 9.999926732E-01 2.468027015E-07 1.425105718E-01
8.800000000E+00 9.999928430E-01 2.362281570E-07 1.408911335E-01
8.900000000E+00 9.999930070E-01 2.261736755E-07 1.393080870E-01
9.000000000E+00 9.999931641E-01 2.181559628E-07 1.377602194E-01
9.100000000E+00 9.999933135E-01 2.133876704E-07 1.362463708E-01
9.200000000E+00 9.999934581E-01 2.087740192E-07 1.347654320E-01
9.300000000E+00 9.999935980E-01 2.043083938E-07 1.333163414E-01
9.400000000E+00 9.999937335E-01 1.999845290E-07 1.318980824E-01
9.500000000E+00 9.999938647E-01 1.957964874E-07 1.305096815E-01
9.600000000E+00 9.999940210E-01 1.701264263E-07 1.291502057E-01
9.700000000E+00 9.999941478E-01 1.635511206E-07 1.278187603E-01
9.800000000E+00 9.999942706E-01 1.572690905E-07 1.265144872E-01
9.900000000E+00 9.999943896E-01 1.512648449E-07 1.252365631E-01
1.000000000E+01 9.999945049E-01 1.455238457E-07 1.239841975E-01
1.010000000E+01 9.999946168E-01 1.400324407E-07 1.227566311E-01
1.020000000E+01 9.999947248E-01 1.350492103E-07 1.215531348E-01
1.030000000E+01 9.999948268E-01 1.324396252E-07 1.203730072E-01
1.040000000E+01 9.999949258E-01 1.299049541E-07 1.192155745E-01
1.050000000E+01 9.999950220E-01 1.274423568E-07 1.180801881E-01
1.060000000E+01 9.999951154E-01 1.250491264E-07 1.169662240E-01
1.070000000E+01 9.999952305E-01 1.125251922E-07 1.158730817E-01
1.080000000E+01 9.999953228E-01 1.086024963E-07 1.148001828E-01
1.090000000E+01 9.999954125E-01 1.048374489E-07 1.137469701E-01
1.100000000E+01 9.999954996E-01 1.012225436E-07 1.127129068E-01
1.110000000E+01 9.999955842E-01 9.775069031E-08 1.116974752E-01
1.120000000E+01 9.999956665E-01 9.441518937E-08 1.107001763E-01
1.130000000E+01 9.999957432E-01 9.262748012E-08 1.097205287E-01
1.140000000E+01 9.999958175E-01 9.100956400E-08 1.087580679E-01
1.150000000E+01 9.999958899E-01 8.943367060E-08 1.078123456E-01
1.160000000E+01 9.999959827E-01 8.263164338E-08 1.068829288E-01
1.170000000E+01 9.999960565E-01 7.996009708E-08 1.059693995E-01
1.180000000E+01 9.999961282E-01 7.738793908E-08 1.050713538E-01
1.190000000E+01 9.999961980E-01 7.491078863E-08 1.041884012E-01
1.200000000E+01 9.999962616E-01 7.355227822E-08 1.033201645E-01
1.210000000E+01 9.999963231E-01 7.234156181E-08 1.024662789E-01
1.220000000E+01 9.999964052E-01 6.813546334E-08 1.016263914E-01
1.230000000E+01 9.999964707E-01 6.603837866E-08 1.008001605E-01
1.240000000E+01 9.999965344E-01 6.401557639E-08 9.998725601E-02
1.250000000E+01 9.999965902E-01 6.291828893E-08 9.918735797E-02
1.260000000E+01 9.999966655E-01 6.022892548E-08 9.840015671E-02
1.270000000E+01 9.999967286E-01 5.843438677E-08 9.762535233E-02
1.280000000E+01 9.999967858E-01 5.702818878E-08 9.686265426E-02
1.290000000E+01 9.999968593E-01 5.504138446E-08 9.611178098E-02
1.300000000E+01 9.999969234E-01 5.346054754E-08 9.537245958E-02
1.310000000E+01 9.999969988E-01 5.254825984E-08 9.464442554E-02
1.320000000E+01 9.999970752E-01 5.427205515E-08 9.392742232E-02
1.330000000E+01 9.999971757E-01 7.728881106E-08 9.322120110E-02
1.340000000E+01 9.999972682E-01 1.561730334E-07 9.252552049E-02
1.350000000E+01 9.999973044E-01 2.288172000E-07 9.184014627E-02
1.360000000E+01 9.999972780E-01 2.997272153E-07 9.116485107E-02
1.370000000E+01 9.999972633E-01 3.115556465E-07 9.049941420E-02
1.380000000E+01 9.999972678E-01 3.060738640E-07 8.984362135E-02
1.390000000E+01 9.999972971E-01 3.013062194E-07 8.919726436E-02
1.400000000E+01 9.999973001E-01 2.914177101E-07 8.856014104E-02
1.410000000E+01 9.999973380E-01 2.872612677E-07 8.793205493E-02
1.420000000E+01 9.999973469E-01 2.772350497E-07 8.731281511E-02
1.430000000E+01 9.999973830E-01 2.731988763E-07 8.670223598E-02
1.440000000E+01 9.999974000E-01 2.636716229E-07 8.610013712E-02
1.450000000E+01 9.999974262E-01 2.571871787E-07 8.550634307E-02
1.460000000E+01 9.999974604E-01 2.533768229E-07 8.492068319E-02
1.470000000E+01 9.999974819E-01 2.447594820E-07 8.434299147E-02
1.480000000E+01 9.999975092E-01 2.388155437E-07 8.377310639E-02
1.490000000E+01 9.999975393E-01 2.343561286E-07 8.321087078E-02
1.500000000E+01 9.999975720E-01 2.312417960E-07 8.265613164E-02
1.510000000E+01 9.999975919E-01 2.221020167E-07 8.210874004E-02
1.520000000E+01 9.999976189E-01 2.168520826E-07 8.156855096E-02
1.530000000E+01 9.999976485E-01 2.133402186E-07 8.103542318E-02
1.540000000E+01 9.999976790E-01 2.105785621E-07 8.050921913E-02
1.550000000E+01 9.999976991E-01 2.021457186E-07 7.998980481E-02
1.560000000E+01 9.999977250E-01 1.975188587E-07 7.947704965E-02
1.570000000E+01 9.999977527E-01 1.943260255E-07 7.897082641E-02
1.580000000E+01 9.999977811E-01 1.918739867E-07 7.847101105E-02
1.590000000E+01 9.999978089E-01 1.894680671E-07 7.797748268E-02
1.600000000E+01 9.999978266E-01 1.803955116E-07 7.749012341E-02
1.610000000E+01 9.999978510E-01 1.764017613E-07 7.700881830E-02
1.620000000E+01 9.999978755E-01 1.728805021E-07 7.653345522E-02
1.630000000E+01 9.999979015E-01 1.707657758E-07 7.606392482E-02
1.640000000E+01 9.999979270E-01 1.686896154E-07 7.560012040E-02
1.650000000E+01 9.999979458E-01 1.615129079E-07 7.514193785E-02
1.660000000E+01 9.999979686E-01 1.580336978E-07 7.468927558E-02
1.670000000E+01 9.999979918E-01 1.552420944E-07 7.424203441E-02
1.680000000E+01 9.999980156E-01 1.533994746E-07 7.380011753E-02
1.690000000E+01 9.999980354E-01 1.480446759E-07 7.336343045E-02
1.700000000E+01 9.999980570E-01 1.448772317E-07 7.293188086E-02
1.710000000E+01 9.999980782E-01 1.417900774E-07 7.250537863E-02
1.720000000E+01 9.999980999E-01 1.396133959E-07 7.208383573E-02
1.730000000E+01 9.999981218E-01 1.380040330E-07 7.166716616E-02
1.740000000E+01 9.999981403E-01 1.330143204E-07 7.125528590E-02
1.750000000E+01 9.999981604E-01 1.302348441E-07 7.084811283E-02
1.760000000E+01 9.999981807E-01 1.281583790E-07 7.044556674E-02
1.770000000E+01 9.999982012E-01 1.267143524E-07 7.004756919E-02
1.780000000E+01 9.999982190E-01 1.223667830E-07 6.965404352E-02
1.790000000E+01 9.999982379E-01 1.198748386E-07 6.926491478E-02
1.800000000E+01 9.999982567E-01 1.175603670E-07 6.888010970E-02
1.810000000E+01 9.999982759E-01 1.162649458E-07 6.849955661E-02
1.820000000E+01 9.999982932E-01 1.127728916E-07 6.812318542E-02
1.830000000E+01 9.999983110E-01 1.105202271E-07 6.775092757E-02
1.840000000E+01 9.999983286E-01 1.083207434E-07 6.738271601E-02
1.850000000E+01 9.999983465E-01 1.070256339E-07 6.701848511E-02
1.860000000E+01 9.999983642E-01 1.058779142E-07 6.665817068E-02
1.870000000E+01 9.999983799E-01 1.020772798E-07 6.630170987E-02
1.880000000E+01 9.999983965E-01 1.000925569E-07 6.594904120E-02
1.890000000E+01 9.999984132E-01 9.866130739E-08 6.560010448E-02
1.900000000E+01 9.999984299E-01 9.762550031E-08 6.525484077E-02
1.910000000E+01 9.999984450E-01 9.444541985E-08 6.491319239E-02
1.920000000E+01 9.999984606E-01 9.264984327E-08 6.457510284E-02
1.930000000E+01 9.999984761E-01 9.089466473E-08 6.424051682E-02
1.940000000E+01 9.999984913E-01 8.919638888E-08 6.390938013E-02
1.950000000E+01 9.999985065E-01 8.785049131E-08 6.358163972E-02
1.960000000E+01 9.999985217E-01 8.695634454E-08 6.325724360E-02
1.970000000E+01 9.999985357E-01 8.431558633E-08 6.293614084E-02
1.980000000E+01 9.999985501E-01 8.275681912E-08 6.261828154E-02
1.990000000E+01 9.999985644E-01 8.147477570E-08 6.230361681E-02
2.000000000E+01 9.999985787E-01 8.066206482E-08 6.199209873E-02
2.010000000E+01 9.999985928E-01 7.986145374E-08 6.168368033E-02
2.020000000E+01 9.999986056E-01 7.690352535E-08 6.137831557E-02
2.030000000E+01 9.999986190E-01 7.552036052E-08 6.107595934E-02
2.040000000E+01 9.999986322E-01 7.416664468E-08 6.077656738E-02
2.050000000E+01 9.999986453E-01 7.286147565E-08 6.048009632E-02
2.060000000E+01 9.999986584E-01 7.215579966E-08 6.018650362E-02
2.070000000E+01 9.999986713E-01 7.146032613E-08 5.989574756E-02
2.080000000E+01 9.999986841E-01 7.077485933E-08 5.960778724E-02
2.090000000E+01 9.999986956E-01 6.782122532E-08 5.932258252E-02
2.100000000E+01 9.999987078E-01 6.663079456E-08 5.904009403E-02
2.110000000E+01 9.999987198E-01 6.546495793E-08 5.876028316E-02
2.120000000E+01 9.999987317E-01 6.460103268E-08 5.848311201E-02
2.130000000E+01 9.999987436E-01 6.399587412E-08 5.820854341E-02
2.140000000E+01 9.999987553E-01 6.339917925E-08 5.793654087E-02
2.150000000E+01 9.999987669E-01 6.281079098E-08 5.766706859E-02
2.160000000E+01 9.999987774E-01 5.999879756E-08 5.740009142E-02
2.170000000E+01 9.999987885E-01 5.897137814E-08 5.713557487E-02
2.180000000E+01 9.999987994E-01 5.796456659E-08 5.687348507E-02
2.190000000E+01 9.999988102E-01 5.697786941E-08 5.661378879E-02
2.200000000E+01 9.999988209E-01 5.634521774E-08 5.635645339E-02
2.210000000E+01 9.999988316E-01 5.583645991E-08 5.610144681E-02
2.220000000E+01 9.999988421E-01 5.533456169E-08 5.584873759E-02
2.230000000E+01 9.999988525E-01 5.483940032E-08 5.559829482E-02
2.240000000E+01 9.999988627E-01 5.435085576E-08 5.535008815E-02
2.250000000E+01 9.999988721E-01 5.152291902E-08 5.510408776E-02
2.260000000E+01 9.999988819E-01 5.067522152E-08 5.486026436E-02
2.270000000E+01 9.999988916E-01 4.984385870E-08 5.461858919E-02
2.280000000E+01 9.999989012E-01 4.902845475E-08 5.437903397E-02
2.290000000E+01 9.999989107E-01 4.822864399E-08 5.414157094E-02
2.300000000E+01 9.999989201E-01 4.747915755E-08 5.390617281E-02
2.310000000E+01 9.999989294E-01 4.706897236E-08 5.367281275E-02
2.320000000E+01 9.999989386E-01 4.666407986E-08 5.344146442E-02
2.330000000E+01 9.999989477E-01 4.626438936E-08 5.321210191E-02
2.340000000E+01 9.999989567E-01 4.586981215E-08 5.298469977E-02
2.350000000E+01 9.999989655E-01 4.548026137E-08 5.275923296E-02
2.360000000E+01 9.999989743E-01 4.509565201E-08 5.253567689E-02
2.370000000E+01 9.999989829E-01 4.471590084E-08 5.231400737E-02
2.380000000E+01 9.999989909E-01 4.178283973E-08 5.209420061E-02
2.390000000E+01 9.999989992E-01 4.113252665E-08 5.187623325E-02
2.400000000E+01 9.999990075E-01 4.049406950E-08 5.166008227E-02
2.410000000E+01 9.999990157E-01 3.986721016E-08 5.144572509E-02
2.420000000E+01 9.999990237E-01 3.925169710E-08 5.123313945E-02
2.430000000E+01 9.999990317E-01 3.864728517E-08 5.102230348E-02
2.440000000E+01 9.999990395E-01 3.805373546E-08 5.081319568E-02
2.450000000E+01 9.999990473E-01 3.747081506E-08 5.060579488E-02
2.460000000E+01 9.999990550E-01 3.710261135E-08 5.040008027E-02
2.470000000E+01 9.999990627E-01 3.680279350E-08 5.019603136E-02
2.480000000E+01 9.999990702E-01 3.650659516E-08 4.999362801E-02
2.490000000E+01 9.999990776E-01 3.621395830E-08 4.979285038E-02
2.500000000E+01 9.999990850E-01 3.592482606E-08 4.959367898E-02
2.510000000E+01 9.999990923E-01 3.563914269E-08 4.939609460E-02
2.520000000E+01 9.999990995E-01 3.535685356E-08 4.920007836E-02
2.530000000E+01 9.999991066E-01 3.507790512E-08 4.900561164E-02
2.540000000E+01 9.999991136E-01 3.480224485E-08 4.881267616E-02
2.550000000E+01 9.999991205E-01 3.452982128E-08 4.862125391E-02
2.560000000E+01 9.999991271E-01 3.181242790E-08 4.843132713E-02
2.570000000E+01 9.999991338E-01 3.134995120E-08 4.824287839E-02
2.580000000E+01 9.999991405E-01 3.089533172E-08 4.805589049E-02
2.590000000E+01 9.999991471E-01 3.044841012E-08 4.787034651E-02
2.600000000E+01 9.999991536E-01 3.000903083E-08 4.768622979E-02
2.610000000E+01 9.999991601E-01 2.957704199E-08 4.750352393E-02
2.620000000E+01 9.999991664E-01 2.915229531E-08 4.732221277E-02
2.630000000E+01 9.999991727E-01 2.873464599E-08 4.714228040E-02
2.640000000E+01 9.999991790E-01 2.832395263E-08 4.696371116E-02
2.650000000E+01 9.999991851E-01 2.792007713E-08 4.678648961E-02
2.660000000E+01 9.999991912E-01 2.752288460E-08 4.661060055E-02
2.670000000E+01 9.999991972E-01 2.713224328E-08 4.643602901E-02
2.680000000E+01 9.999992032E-01 2.690400726E-08 4.626276025E-02
2.690000000E+01 9.999992091E-01 2.670434927E-08 4.609077972E-02
2.700000000E+01 9.999992150E-01 2.650690559E-08 4.592007313E-02
2.710000000E+01 9.999992207E-01 2.631164360E-08 4.575062637E-02
2.720000000E+01 9.999992265E-01 2.611853127E-08 4.558242554E-02
2.730000000E+01 9.999992321E-01 2.592753717E-08 4.541545694E-02
2.740000000E+01 9.999992377E-01 2.573863042E-08 4.524970710E-02
2.750000000E+01 9.999992432E-01 2.555178073E-08 4.508516271E-02
2.760000000E+01 9.999992487E-01 2.536695833E-08 4.492181067E-02
2.770000000E+01 9.999992541E-01 2.518413400E-08 4.475963807E-02
2.780000000E+01 9.999992595E-01 2.500327904E-08 4.459863218E-02
2.790000000E+01 9.999992648E-01 2.482436528E-08 4.443878045E-02
2.800000000E+01 9.999992700E-01 2.268722760E-08 4.428007052E-02
2.810000000E+01 9.999992752E-01 2.238213054E-08 4.412249020E-02
2.820000000E+01 9.999992803E-01 2.208179625E-08 4.396602747E-02
2.830000000E+01 9.999992853E-01 2.178613613E-08 4.381067048E-02
2.840000000E+01 9.999992904E-01 2.149506350E-08 4.365640756E-02
2.850000000E+01 9.999992953E-01 2.120849357E-08 4.350322718E-02
2.860000000E+01 9.999993003E-01 2.092634338E-08 4.335111799E-02
2.870000000E+01 9.999993051E-01 2.064853177E-08 4.320006880E-02
2.880000000E+01 9.999993099E-01 2.037497931E-08 4.305006856E-02
2.890000000E+01 9.999993147E-01 2.010560830E-08 4.290110639E-02
2.900000000E+01 9.999993194E-01 1.984034266E-08 4.275317154E-02
2.910000000E+01 9.999993241E-01 1.957910798E-08 4.260625342E-02
2.920000000E+01 9.999993287E-01 1.932183140E-08 4.246034160E-02
2.930000000E+01 9.999993333E-01 1.906844160E-08 4.231542575E-02
2.940000000E+01 9.999993378E-01 1.885972983E-08 4.217149573E-02
2.950000000E+01 9.999993423E-01 1.873208397E-08 4.202854151E-02
2.960000000E+01 9.999993467E-01 1.860572964E-08 4.188655320E-02
2.970000000E+01 9.999993511E-01 1.848064946E-08 4.174552103E-02
2.980000000E+01 9.999993554E-01 1.835682636E-08 4.160543539E-02
2.990000000E+01 9.999993597E-01 1.823424355E-08 4.146628678E-02
3.000000000E+01 9.999993640E-01 1.811288453E-08 4.132806582E-02
3.010000000E+01 9.999993682E-01 1.799273306E-08 4.119076328E-02
3.020000000E+01 9.999993724E-01 1.787377317E-08 4.105437002E-02
3.030000000E+01 9.999993765E-01 1.775598915E-08 4.091887705E-02
3.040000000E+01 9.999993806E-01 1.763936556E-08 4.078427548E-02
3.050000000E+01 9.999993847E-01 1.752388721E-08 4.065055654E-02
3.060000000E+01 9.999993887E-01 1.740953915E-08 4.051771159E-02
3.070000000E+01 9.999993927E-01 1.729630668E-08 4.038573207E-02
3.080000000E+01 9.999993966E-01 1.718417532E-08 4.025460956E-02
3.090000000E+01 9.999994005E-01 1.707313086E-08 4.012433575E-02
3.100000000E+01 9.999994044E-01 1.696315929E-08 3.999490241E-02
3.110000000E+01 9.999994082E-01 1.685424683E-08 3.986630143E-02
3.120000000E+01 9.999994121E-01 1.505905970E-08 3.973852483E-02
3.130000000E+01 9.999994159E-01 1.487722785E-08 3.961156468E-02
3.140000000E+01 9.999994196E-01 1.469794596E-08 3.948541320E-02
3.150000000E+01 9.999994233E-01 1.452117138E-08 3.936006269E-02
3.160000000E+01 9.999994269E-01 1.434686231E-08 3.923550552E-02
3.170000000E+01 9.999994305E-01 1.417497778E-08 3.911173421E-02
