# 04/03/2022 
# Density retrieved from www.chemicool.com/densities.html 
# Includes the real (n) and complex (k) part of the  refractive index. 
# Element, Cd  (Z = 48) 
# Nominal density, g cm-3 =  8.65 
#    E [keV]      n       k    Wavelength [nm] 
1.000000000E+00 9.987522196E-01 6.265792847E-04 1.239841975E+00
1.100000000E+00 9.989339862E-01 4.619398137E-04 1.127129068E+00
1.200000000E+00 9.990939378E-01 3.699222993E-04 1.033201645E+00
1.300000000E+00 9.992117798E-01 2.774581096E-04 9.537245958E-01
1.400000000E+00 9.993115997E-01 2.094626150E-04 8.856014104E-01
1.500000000E+00 9.993983811E-01 1.758529668E-04 8.265613164E-01
1.600000000E+00 9.994679944E-01 1.338651113E-04 7.749012341E-01
1.700000000E+00 9.995281056E-01 1.145108384E-04 7.293188086E-01
1.800000000E+00 9.995791272E-01 8.983114220E-05 6.888010970E-01
1.900000000E+00 9.996222859E-01 7.463744570E-05 6.525484077E-01
2.000000000E+00 9.996591179E-01 6.603621597E-05 6.199209873E-01
2.100000000E+00 9.996923811E-01 5.295785217E-05 5.904009403E-01
2.200000000E+00 9.997204322E-01 4.506737125E-05 5.635645339E-01
2.300000000E+00 9.997444738E-01 4.008638262E-05 5.390617281E-01
2.400000000E+00 9.997653240E-01 3.681544515E-05 5.166008227E-01
2.500000000E+00 9.997865969E-01 2.891359505E-05 4.959367898E-01
2.600000000E+00 9.998035851E-01 2.518221290E-05 4.768622979E-01
2.700000000E+00 9.998178934E-01 2.330174758E-05 4.592007313E-01
2.800000000E+00 9.998334705E-01 1.943387028E-05 4.428007052E-01
2.900000000E+00 9.998459512E-01 1.716506461E-05 4.275317154E-01
3.000000000E+00 9.998562743E-01 1.586096885E-05 4.132806582E-01
3.100000000E+00 9.998685814E-01 1.356184755E-05 3.999490241E-01
3.200000000E+00 9.998771359E-01 1.253701649E-05 3.874506171E-01
3.300000000E+00 9.998883068E-01 1.093512639E-05 3.757096893E-01
3.400000000E+00 9.998986148E-01 9.833132905E-06 3.646594043E-01
3.500000000E+00 9.999152473E-01 1.112118641E-05 3.542405642E-01
3.600000000E+00 9.999178244E-01 2.566192961E-05 3.444005485E-01
3.700000000E+00 9.999191650E-01 2.527619931E-05 3.350924256E-01
3.800000000E+00 9.999184175E-01 2.956389546E-05 3.262742038E-01
3.900000000E+00 9.999188855E-01 2.724921839E-05 3.179081986E-01
4.000000000E+00 9.999217126E-01 2.687650501E-05 3.099604936E-01
4.100000000E+00 9.999222780E-01 2.626582600E-05 3.024004816E-01
4.200000000E+00 9.999240728E-01 2.434402879E-05 2.952004701E-01
4.300000000E+00 9.999256574E-01 2.225895208E-05 2.883353429E-01
4.400000000E+00 9.999278048E-01 2.046168057E-05 2.817822670E-01
4.500000000E+00 9.999305410E-01 1.927067183E-05 2.755204388E-01
4.600000000E+00 9.999323861E-01 1.748799150E-05 2.695308640E-01
4.700000000E+00 9.999350615E-01 1.660876679E-05 2.637961648E-01
4.800000000E+00 9.999368564E-01 1.502786071E-05 2.583004114E-01
4.900000000E+00 9.999393669E-01 1.437957493E-05 2.530289744E-01
5.000000000E+00 9.999411003E-01 1.298845304E-05 2.479683949E-01
5.100000000E+00 9.999432563E-01 1.232271767E-05 2.431062695E-01
5.200000000E+00 9.999450390E-01 1.128774101E-05 2.384311490E-01
5.300000000E+00 9.999469340E-01 1.062771500E-05 2.339324480E-01
5.400000000E+00 9.999486642E-01 9.859460174E-06 2.296003657E-01
5.500000000E+00 9.999503816E-01 9.273465766E-06 2.254258136E-01
5.600000000E+00 9.999519950E-01 8.653998549E-06 2.214003526E-01
5.700000000E+00 9.999535505E-01 8.120389146E-06 2.175161359E-01
5.800000000E+00 9.999550430E-01 7.628705775E-06 2.137658577E-01
5.900000000E+00 9.999565005E-01 7.251440912E-06 2.101427076E-01
6.000000000E+00 9.999578373E-01 6.751277609E-06 2.066403291E-01
6.100000000E+00 9.999591787E-01 6.455351072E-06 2.032527827E-01
6.200000000E+00 9.999604002E-01 5.999590638E-06 1.999745120E-01
6.300000000E+00 9.999616187E-01 5.726412843E-06 1.968003134E-01
6.400000000E+00 9.999627482E-01 5.349223254E-06 1.937253085E-01
6.500000000E+00 9.999638814E-01 5.172124533E-06 1.907449192E-01
6.600000000E+00 9.999649043E-01 4.785471666E-06 1.878548446E-01
6.700000000E+00 9.999659163E-01 4.531388196E-06 1.850510410E-01
6.800000000E+00 9.999669049E-01 4.372589942E-06 1.823297021E-01
6.900000000E+00 9.999678220E-01 4.078635986E-06 1.796872427E-01
7.000000000E+00 9.999687163E-01 3.865784564E-06 1.771202821E-01
7.100000000E+00 9.999695781E-01 3.685514791E-06 1.746256302E-01
7.200000000E+00 9.999704043E-01 3.510789384E-06 1.722002742E-01
7.300000000E+00 9.999711947E-01 3.316719959E-06 1.698413664E-01
7.400000000E+00 9.999719636E-01 3.196261512E-06 1.675462128E-01
7.500000000E+00 9.999726954E-01 3.022337608E-06 1.653122633E-01
7.600000000E+00 9.999734017E-01 2.870014130E-06 1.631371019E-01
7.700000000E+00 9.999740829E-01 2.727448963E-06 1.610184383E-01
7.800000000E+00 9.999747392E-01 2.604641778E-06 1.589540993E-01
7.900000000E+00 9.999753716E-01 2.482324225E-06 1.569420221E-01
8.000000000E+00 9.999759811E-01 2.376305344E-06 1.549802468E-01
8.100000000E+00 9.999765690E-01 2.264398500E-06 1.530669104E-01
8.200000000E+00 9.999771362E-01 2.181705398E-06 1.512002408E-01
8.300000000E+00 9.999776839E-01 2.070418593E-06 1.493785512E-01
8.400000000E+00 9.999782121E-01 1.981082902E-06 1.476002351E-01
8.500000000E+00 9.999787218E-01 1.919354487E-06 1.458637617E-01
8.600000000E+00 9.999792151E-01 1.816627659E-06 1.441676715E-01
8.700000000E+00 9.999796910E-01 1.740596036E-06 1.425105718E-01
8.800000000E+00 9.999801501E-01 1.694470788E-06 1.408911335E-01
8.900000000E+00 9.999805936E-01 1.656606714E-06 1.393080870E-01
9.000000000E+00 9.999810285E-01 1.536472521E-06 1.377602194E-01
9.100000000E+00 9.999814451E-01 1.474886590E-06 1.362463708E-01
9.200000000E+00 9.999818482E-01 1.416196291E-06 1.347654320E-01
9.300000000E+00 9.999822371E-01 1.376618299E-06 1.333163414E-01
9.400000000E+00 9.999826173E-01 1.307676762E-06 1.318980824E-01
9.500000000E+00 9.999829838E-01 1.257197078E-06 1.305096815E-01
9.600000000E+00 9.999833369E-01 1.227578120E-06 1.291502057E-01
9.700000000E+00 9.999836840E-01 1.163694955E-06 1.278187603E-01
9.800000000E+00 9.999840180E-01 1.120062708E-06 1.265144872E-01
9.900000000E+00 9.999843404E-01 1.089061462E-06 1.252365631E-01
1.000000000E+01 9.999846566E-01 1.039043031E-06 1.239841975E-01
1.010000000E+01 9.999849618E-01 1.001215127E-06 1.227566311E-01
1.020000000E+01 9.999852582E-01 9.652127660E-07 1.215531348E-01
1.030000000E+01 9.999855440E-01 9.417296284E-07 1.203730072E-01
1.040000000E+01 9.999858258E-01 8.981066831E-07 1.192155745E-01
1.050000000E+01 9.999860974E-01 8.666408000E-07 1.180801881E-01
1.060000000E+01 9.999863589E-01 8.482842115E-07 1.169662240E-01
1.070000000E+01 9.999866126E-01 8.325025243E-07 1.158730817E-01
1.080000000E+01 9.999868674E-01 7.807363955E-07 1.148001828E-01
1.090000000E+01 9.999871099E-01 7.543802619E-07 1.137469701E-01
1.100000000E+01 9.999873443E-01 7.358646523E-07 1.127129068E-01
1.110000000E+01 9.999875713E-01 7.226655541E-07 1.116974752E-01
1.120000000E+01 9.999877923E-01 7.098184225E-07 1.107001763E-01
1.130000000E+01 9.999880169E-01 6.595419663E-07 1.097205287E-01
1.140000000E+01 9.999882287E-01 6.380877341E-07 1.087580679E-01
1.150000000E+01 9.999884350E-01 6.174465247E-07 1.078123456E-01
1.160000000E+01 9.999886343E-01 6.037910211E-07 1.068829288E-01
1.170000000E+01 9.999888277E-01 5.935139148E-07 1.059693995E-01
1.180000000E+01 9.999890163E-01 5.834969822E-07 1.050713538E-01
1.190000000E+01 9.999892001E-01 5.737315147E-07 1.041884012E-01
1.200000000E+01 9.999893794E-01 5.642091653E-07 1.033201645E-01
1.210000000E+01 9.999895684E-01 5.109467023E-07 1.024662789E-01
1.220000000E+01 9.999897411E-01 4.953956034E-07 1.016263914E-01
1.230000000E+01 9.999899094E-01 4.803959555E-07 1.008001605E-01
1.240000000E+01 9.999900737E-01 4.659245060E-07 9.998725601E-02
1.250000000E+01 9.999902340E-01 4.519591476E-07 9.918735797E-02
1.260000000E+01 9.999903892E-01 4.424183662E-07 9.840015671E-02
1.270000000E+01 9.999905400E-01 4.354785778E-07 9.762535233E-02
1.280000000E+01 9.999906872E-01 4.287008045E-07 9.686265426E-02
1.290000000E+01 9.999908310E-01 4.220800421E-07 9.611178098E-02
1.300000000E+01 9.999909715E-01 4.156114782E-07 9.537245958E-02
1.310000000E+01 9.999911088E-01 4.092904831E-07 9.464442554E-02
1.320000000E+01 9.999912431E-01 4.031126022E-07 9.392742232E-02
1.330000000E+01 9.999913742E-01 3.970735475E-07 9.322120110E-02
1.340000000E+01 9.999915211E-01 3.489665828E-07 9.252552049E-02
1.350000000E+01 9.999916483E-01 3.393380375E-07 9.184014627E-02
1.360000000E+01 9.999917726E-01 3.300187948E-07 9.116485107E-02
1.370000000E+01 9.999918941E-01 3.209970357E-07 9.049941420E-02
1.380000000E+01 9.999920130E-01 3.122614693E-07 8.984362135E-02
1.390000000E+01 9.999921292E-01 3.038013053E-07 8.919726436E-02
1.400000000E+01 9.999922430E-01 2.956062285E-07 8.856014104E-02
1.410000000E+01 9.999923543E-01 2.876663754E-07 8.793205493E-02
1.420000000E+01 9.999924632E-01 2.799723108E-07 8.731281511E-02
1.430000000E+01 9.999925689E-01 2.746535129E-07 8.670223598E-02
1.440000000E+01 9.999926717E-01 2.708521261E-07 8.610013712E-02
1.450000000E+01 9.999927724E-01 2.671291170E-07 8.550634307E-02
1.460000000E+01 9.999928711E-01 2.634823459E-07 8.492068319E-02
1.470000000E+01 9.999929678E-01 2.599097453E-07 8.434299147E-02
1.480000000E+01 9.999930625E-01 2.564093173E-07 8.377310639E-02
1.490000000E+01 9.999931553E-01 2.529791309E-07 8.321087078E-02
1.500000000E+01 9.999932462E-01 2.496173194E-07 8.265613164E-02
1.510000000E+01 9.999933354E-01 2.463220774E-07 8.210874004E-02
1.520000000E+01 9.999934382E-01 2.170675405E-07 8.156855096E-02
1.530000000E+01 9.999935252E-01 2.117500468E-07 8.103542318E-02
1.540000000E+01 9.999936104E-01 2.065838256E-07 8.050921913E-02
1.550000000E+01 9.999936940E-01 2.015637584E-07 7.998980481E-02
1.560000000E+01 9.999937759E-01 1.966849294E-07 7.947704965E-02
1.570000000E+01 9.999938563E-01 1.919426156E-07 7.897082641E-02
1.580000000E+01 9.999939351E-01 1.873322791E-07 7.847101105E-02
1.590000000E+01 9.999940124E-01 1.828495580E-07 7.797748268E-02
1.600000000E+01 9.999940883E-01 1.784902588E-07 7.749012341E-02
1.610000000E+01 9.999941627E-01 1.742503493E-07 7.700881830E-02
1.620000000E+01 9.999942351E-01 1.711970158E-07 7.653345522E-02
1.630000000E+01 9.999943056E-01 1.691028824E-07 7.606392482E-02
1.640000000E+01 9.999943748E-01 1.670469394E-07 7.560012040E-02
1.650000000E+01 9.999944428E-01 1.650282638E-07 7.514193785E-02
1.660000000E+01 9.999945096E-01 1.630459603E-07 7.468927558E-02
1.670000000E+01 9.999945751E-01 1.610991603E-07 7.424203441E-02
1.680000000E+01 9.999946395E-01 1.591870210E-07 7.380011753E-02
1.690000000E+01 9.999947027E-01 1.573087245E-07 7.336343045E-02
1.700000000E+01 9.999947649E-01 1.554634769E-07 7.293188086E-02
1.710000000E+01 9.999948259E-01 1.536505072E-07 7.250537863E-02
1.720000000E+01 9.999948996E-01 1.359898472E-07 7.208383573E-02
1.730000000E+01 9.999949596E-01 1.330327466E-07 7.166716616E-02
1.740000000E+01 9.999950186E-01 1.301502349E-07 7.125528590E-02
1.750000000E+01 9.999950765E-01 1.273400738E-07 7.084811283E-02
1.760000000E+01 9.999951334E-01 1.246001038E-07 7.044556674E-02
1.770000000E+01 9.999951893E-01 1.219282405E-07 7.004756919E-02
1.780000000E+01 9.999952443E-01 1.193224720E-07 6.965404352E-02
1.790000000E+01 9.999952983E-01 1.167808560E-07 6.926491478E-02
1.800000000E+01 9.999953515E-01 1.143015167E-07 6.888010970E-02
1.810000000E+01 9.999954037E-01 1.118826425E-07 6.849955661E-02
1.820000000E+01 9.999954550E-01 1.095224836E-07 6.812318542E-02
1.830000000E+01 9.999955055E-01 1.072193491E-07 6.775092757E-02
1.840000000E+01 9.999955547E-01 1.055028683E-07 6.738271601E-02
1.850000000E+01 9.999956026E-01 1.043653794E-07 6.701848511E-02
1.860000000E+01 9.999956498E-01 1.032461877E-07 6.665817068E-02
1.870000000E+01 9.999956962E-01 1.021449029E-07 6.630170987E-02
1.880000000E+01 9.999957419E-01 1.010611450E-07 6.594904120E-02
1.890000000E+01 9.999957868E-01 9.999454411E-08 6.560010448E-02
1.900000000E+01 9.999958310E-01 9.894473989E-08 6.525484077E-02
1.910000000E+01 9.999958746E-01 9.791138154E-08 6.491319239E-02
1.920000000E+01 9.999959174E-01 9.689412733E-08 6.457510284E-02
1.930000000E+01 9.999959596E-01 9.589264437E-08 6.424051682E-02
1.940000000E+01 9.999960012E-01 9.490660830E-08 6.390938013E-02
1.950000000E+01 9.999960421E-01 9.393570309E-08 6.358163972E-02
1.960000000E+01 9.999960966E-01 8.281417159E-08 6.325724360E-02
1.970000000E+01 9.999961371E-01 8.122512609E-08 6.293614084E-02
1.980000000E+01 9.999961771E-01 7.967138036E-08 6.261828154E-02
1.990000000E+01 9.999962164E-01 7.815200153E-08 6.230361681E-02
2.000000000E+01 9.999962551E-01 7.666608559E-08 6.199209873E-02
2.010000000E+01 9.999962933E-01 7.521275634E-08 6.168368033E-02
2.020000000E+01 9.999963308E-01 7.379116443E-08 6.137831557E-02
2.030000000E+01 9.999963678E-01 7.240048638E-08 6.107595934E-02
2.040000000E+01 9.999964043E-01 7.103992375E-08 6.077656738E-02
2.050000000E+01 9.999964401E-01 6.970870218E-08 6.048009632E-02
2.060000000E+01 9.999964755E-01 6.840607060E-08 6.018650362E-02
2.070000000E+01 9.999965103E-01 6.713130043E-08 5.989574756E-02
2.080000000E+01 9.999965446E-01 6.588368479E-08 5.960778724E-02
2.090000000E+01 9.999965780E-01 6.500231907E-08 5.932258252E-02
2.100000000E+01 9.999966105E-01 6.438472334E-08 5.904009403E-02
2.110000000E+01 9.999966425E-01 6.377588777E-08 5.876028316E-02
2.120000000E+01 9.999966741E-01 6.317564746E-08 5.848311201E-02
2.130000000E+01 9.999967053E-01 6.258384137E-08 5.820854341E-02
2.140000000E+01 9.999967360E-01 6.200031224E-08 5.793654087E-02
2.150000000E+01 9.999967663E-01 6.142490642E-08 5.766706859E-02
2.160000000E+01 9.999967962E-01 6.085747384E-08 5.740009142E-02
2.170000000E+01 9.999968256E-01 6.029786785E-08 5.713557487E-02
2.180000000E+01 9.999968661E-01 5.514733075E-08 5.687348507E-02
2.190000000E+01 9.999968958E-01 5.419193216E-08 5.661378879E-02
2.200000000E+01 9.999969250E-01 5.325566627E-08 5.635645339E-02
2.210000000E+01 9.999969539E-01 5.233807730E-08 5.610144681E-02
2.220000000E+01 9.999969823E-01 5.143872217E-08 5.584873759E-02
2.230000000E+01 9.999970104E-01 5.055717010E-08 5.559829482E-02
2.240000000E+01 9.999970380E-01 4.969300224E-08 5.535008815E-02
2.250000000E+01 9.999970653E-01 4.884581127E-08 5.510408776E-02
2.260000000E+01 9.999970922E-01 4.801520100E-08 5.486026436E-02
2.270000000E+01 9.999971188E-01 4.720078610E-08 5.461858919E-02
2.280000000E+01 9.999971443E-01 4.665633224E-08 5.437903397E-02
2.290000000E+01 9.999971692E-01 4.624974305E-08 5.414157094E-02
2.300000000E+01 9.999971937E-01 4.584844565E-08 5.390617281E-02
2.310000000E+01 9.999972180E-01 4.545234863E-08 5.367281275E-02
2.320000000E+01 9.999972419E-01 4.506136250E-08 5.344146442E-02
2.330000000E+01 9.999972655E-01 4.467539971E-08 5.321210191E-02
2.340000000E+01 9.999972988E-01 4.204405067E-08 5.298469977E-02
2.350000000E+01 9.999973231E-01 4.136290865E-08 5.275923296E-02
2.360000000E+01 9.999973472E-01 4.069450041E-08 5.253567689E-02
2.370000000E+01 9.999973709E-01 4.003854283E-08 5.231400737E-02
2.380000000E+01 9.999973943E-01 3.939476018E-08 5.209420061E-02
2.390000000E+01 9.999974174E-01 3.876288384E-08 5.187623325E-02
2.400000000E+01 9.999974402E-01 3.814265216E-08 5.166008227E-02
2.410000000E+01 9.999974616E-01 3.776970829E-08 5.144572509E-02
2.420000000E+01 9.999974826E-01 3.745820687E-08 5.123313945E-02
2.430000000E+01 9.999975032E-01 3.715054323E-08 5.102230348E-02
2.440000000E+01 9.999975237E-01 3.684665458E-08 5.081319568E-02
2.450000000E+01 9.999975536E-01 3.525795133E-08 5.060579488E-02
2.460000000E+01 9.999975755E-01 3.471222023E-08 5.040008027E-02
2.470000000E+01 9.999975970E-01 3.417623871E-08 5.019603136E-02
2.480000000E+01 9.999976183E-01 3.364979958E-08 4.999362801E-02
2.490000000E+01 9.999976392E-01 3.313270082E-08 4.979285038E-02
2.500000000E+01 9.999976583E-01 3.283459866E-08 4.959367898E-02
2.510000000E+01 9.999976770E-01 3.257348956E-08 4.939609460E-02
2.520000000E+01 9.999977038E-01 3.165049815E-08 4.920007836E-02
2.530000000E+01 9.999977248E-01 3.117383871E-08 4.900561164E-02
2.540000000E+01 9.999977456E-01 3.070546277E-08 4.881267616E-02
2.550000000E+01 9.999977656E-01 3.028100818E-08 4.862125391E-02
2.560000000E+01 9.999977830E-01 3.004489985E-08 4.843132713E-02
2.570000000E+01 9.999978101E-01 2.936777692E-08 4.824287839E-02
2.580000000E+01 9.999978315E-01 2.893951695E-08 4.805589049E-02
2.590000000E+01 9.999978526E-01 2.851852317E-08 4.787034651E-02
2.600000000E+01 9.999978693E-01 2.828827005E-08 4.768622979E-02
2.610000000E+01 9.999978998E-01 2.828451669E-08 4.750352393E-02
2.620000000E+01 9.999979256E-01 2.935360668E-08 4.732221277E-02
2.630000000E+01 9.999979532E-01 3.248014289E-08 4.714228040E-02
2.640000000E+01 9.999979796E-01 3.777616238E-08 4.696371116E-02
2.650000000E+01 9.999980109E-01 5.330834502E-08 4.678648961E-02
2.660000000E+01 9.999980344E-01 7.244916197E-08 4.661060055E-02
2.670000000E+01 9.999980517E-01 7.879056941E-08 4.643602901E-02
2.680000000E+01 9.999980634E-01 1.097632695E-07 4.626276025E-02
2.690000000E+01 9.999980654E-01 1.299841859E-07 4.609077972E-02
2.700000000E+01 9.999980638E-01 1.416006615E-07 4.592007313E-02
2.710000000E+01 9.999980648E-01 1.455379819E-07 4.575062637E-02
2.720000000E+01 9.999980686E-01 1.477442964E-07 4.558242554E-02
2.730000000E+01 9.999980717E-01 1.468796320E-07 4.541545694E-02
2.740000000E+01 9.999980767E-01 1.459856507E-07 4.524970710E-02
2.750000000E+01 9.999980906E-01 1.449274837E-07 4.508516271E-02
2.760000000E+01 9.999980933E-01 1.422743996E-07 4.492181067E-02
2.770000000E+01 9.999981015E-01 1.404573199E-07 4.475963807E-02
2.780000000E+01 9.999981146E-01 1.393677193E-07 4.459863218E-02
2.790000000E+01 9.999981281E-01 1.383704579E-07 4.443878045E-02
2.800000000E+01 9.999981310E-01 1.351576666E-07 4.428007052E-02
2.810000000E+01 9.999981407E-01 1.334448943E-07 4.412249020E-02
2.820000000E+01 9.999981514E-01 1.319650712E-07 4.396602747E-02
2.830000000E+01 9.999981644E-01 1.310341036E-07 4.381067048E-02
2.840000000E+01 9.999981773E-01 1.301129528E-07 4.365640756E-02
2.850000000E+01 9.999981821E-01 1.268830439E-07 4.350322718E-02
2.860000000E+01 9.999981924E-01 1.253057842E-07 4.335111799E-02
2.870000000E+01 9.999982029E-01 1.238495930E-07 4.320006880E-02
2.880000000E+01 9.999982154E-01 1.229910196E-07 4.305006856E-02
2.890000000E+01 9.999982277E-01 1.221413432E-07 4.290110639E-02
2.900000000E+01 9.999982399E-01 1.213004415E-07 4.275317154E-02
2.910000000E+01 9.999982448E-01 1.177656819E-07 4.260625342E-02
2.920000000E+01 9.999982551E-01 1.163240565E-07 4.246034160E-02
2.930000000E+01 9.999982654E-01 1.149036493E-07 4.231542575E-02
2.940000000E+01 9.999982758E-01 1.136041468E-07 4.217149573E-02
2.950000000E+01 9.999982874E-01 1.128352546E-07 4.202854151E-02
2.960000000E+01 9.999982990E-01 1.120741421E-07 4.188655320E-02
2.970000000E+01 9.999983104E-01 1.113207046E-07 4.174552103E-02
2.980000000E+01 9.999983217E-01 1.105748393E-07 4.160543539E-02
2.990000000E+01 9.999983269E-01 1.066981102E-07 4.146628678E-02
3.000000000E+01 9.999983369E-01 1.053964632E-07 4.132806582E-02
3.010000000E+01 9.999983468E-01 1.041136340E-07 4.119076328E-02
3.020000000E+01 9.999983566E-01 1.028492965E-07 4.105437002E-02
3.030000000E+01 9.999983671E-01 1.020033375E-07 4.091887705E-02
3.040000000E+01 9.999983778E-01 1.013333667E-07 4.078427548E-02
3.050000000E+01 9.999983885E-01 1.006699749E-07 4.065055654E-02
3.060000000E+01 9.999983990E-01 1.000130763E-07 4.051771159E-02
3.070000000E+01 9.999984094E-01 9.936258650E-08 4.038573207E-02
3.080000000E+01 9.999984151E-01 9.569777597E-08 4.025460956E-02
3.090000000E+01 9.999984245E-01 9.456471642E-08 4.012433575E-02
3.100000000E+01 9.999984339E-01 9.344756077E-08 3.999490241E-02
3.110000000E+01 9.999984431E-01 9.234604137E-08 3.986630143E-02
3.120000000E+01 9.999984524E-01 9.132133788E-08 3.973852483E-02
3.130000000E+01 9.999984623E-01 9.073874710E-08 3.961156468E-02
3.140000000E+01 9.999984721E-01 9.016171360E-08 3.948541320E-02
3.150000000E+01 9.999984818E-01 8.959016694E-08 3.936006269E-02
3.160000000E+01 9.999984914E-01 8.902403776E-08 3.923550552E-02
3.170000000E+01 9.999984979E-01 8.617464179E-08 3.911173421E-02
