# 04/03/2022 
# Density retrieved from www.chemicool.com/densities.html 
# Includes the real (n) and complex (k) part of the  refractive index. 
# Element, Fe  (Z = 26) 
# Nominal density, g cm-3 =  7.87 
#    E [keV]      n       k    Wavelength [nm] 
1.000000000E+00 9.987258976E-01 7.079388436E-04 1.239841975E+00
1.100000000E+00 9.988746370E-01 5.138977039E-04 1.127129068E+00
1.200000000E+00 9.990165577E-01 3.821615807E-04 1.033201645E+00
1.300000000E+00 9.991409012E-01 2.897172872E-04 9.537245958E-01
1.400000000E+00 9.992485656E-01 2.269816325E-04 8.856014104E-01
1.500000000E+00 9.993373394E-01 1.762940716E-04 8.265613164E-01
1.600000000E+00 9.994138790E-01 1.428456825E-04 7.749012341E-01
1.700000000E+00 9.994777904E-01 1.131406533E-04 7.293188086E-01
1.800000000E+00 9.995327719E-01 9.189599412E-05 6.888010970E-01
1.900000000E+00 9.995799947E-01 7.638466119E-05 6.525484077E-01
2.000000000E+00 9.996205061E-01 6.321031153E-05 6.199209873E-01
2.100000000E+00 9.996557119E-01 5.373601121E-05 5.904009403E-01
2.200000000E+00 9.996864290E-01 4.460582819E-05 5.635645339E-01
2.300000000E+00 9.997132359E-01 3.842284620E-05 5.390617281E-01
2.400000000E+00 9.997369150E-01 3.251329939E-05 5.166008227E-01
2.500000000E+00 9.997576613E-01 2.898041974E-05 4.959367898E-01
2.600000000E+00 9.997762957E-01 2.441227620E-05 4.768622979E-01
2.700000000E+00 9.997925596E-01 2.263744679E-05 4.592007313E-01
2.800000000E+00 9.998076536E-01 1.849444235E-05 4.428007052E-01
2.900000000E+00 9.998207570E-01 1.692545832E-05 4.275317154E-01
3.000000000E+00 9.998329206E-01 1.435397132E-05 4.132806582E-01
3.100000000E+00 9.998437341E-01 1.270644383E-05 3.999490241E-01
3.200000000E+00 9.998533847E-01 1.179545783E-05 3.874506171E-01
3.300000000E+00 9.998621358E-01 1.109141305E-05 3.757096893E-01
3.400000000E+00 9.998707094E-01 9.041804896E-06 3.646594043E-01
3.500000000E+00 9.998781667E-01 8.110779800E-06 3.542405642E-01
3.600000000E+00 9.998849549E-01 7.392240506E-06 3.444005485E-01
3.700000000E+00 9.998910895E-01 6.998059675E-06 3.350924256E-01
3.800000000E+00 9.998967462E-01 6.634587047E-06 3.262742038E-01
3.900000000E+00 9.999024773E-01 5.425293898E-06 3.179081986E-01
4.000000000E+00 9.999074231E-01 4.931163149E-06 3.099604936E-01
4.100000000E+00 9.999119780E-01 4.530508072E-06 3.024004816E-01
4.200000000E+00 9.999161196E-01 4.317337908E-06 2.952004701E-01
4.300000000E+00 9.999199757E-01 4.118866452E-06 2.883353429E-01
4.400000000E+00 9.999239792E-01 3.454940942E-06 2.817822670E-01
4.500000000E+00 9.999274304E-01 3.173741878E-06 2.755204388E-01
4.600000000E+00 9.999306521E-01 2.918845731E-06 2.695308640E-01
4.700000000E+00 9.999336086E-01 2.752520285E-06 2.637961648E-01
4.800000000E+00 9.999363461E-01 2.639026610E-06 2.583004114E-01
4.900000000E+00 9.999389177E-01 2.532410375E-06 2.530289744E-01
5.000000000E+00 9.999417364E-01 2.136768892E-06 2.479683949E-01
5.100000000E+00 9.999440958E-01 1.982160202E-06 2.431062695E-01
5.200000000E+00 9.999463150E-01 1.840399937E-06 2.384311490E-01
5.300000000E+00 9.999483901E-01 1.721109461E-06 2.339324480E-01
5.400000000E+00 9.999502839E-01 1.657954895E-06 2.296003657E-01
5.500000000E+00 9.999520753E-01 1.598213711E-06 2.254258136E-01
5.600000000E+00 9.999541322E-01 1.391539890E-06 2.214003526E-01
5.700000000E+00 9.999558289E-01 1.300922593E-06 2.175161359E-01
5.800000000E+00 9.999574335E-01 1.217079658E-06 2.137658577E-01
5.900000000E+00 9.999588889E-01 1.165891207E-06 2.101427076E-01
6.000000000E+00 9.999602478E-01 1.127352025E-06 2.066403291E-01
6.100000000E+00 9.999619062E-01 1.005471031E-06 2.032527827E-01
6.200000000E+00 9.999632472E-01 9.448296889E-07 1.999745120E-01
6.300000000E+00 9.999644318E-01 9.087787119E-07 1.968003134E-01
6.400000000E+00 9.999658587E-01 8.377385762E-07 1.937253085E-01
6.500000000E+00 9.999670714E-01 7.896459181E-07 1.907449192E-01
6.600000000E+00 9.999680716E-01 7.645967089E-07 1.878548446E-01
6.700000000E+00 9.999695124E-01 7.038476600E-07 1.850510410E-01
6.800000000E+00 9.999708169E-01 6.650263970E-07 1.823297021E-01
6.900000000E+00 9.999722158E-01 6.363583654E-07 1.796872427E-01
7.000000000E+00 9.999741440E-01 9.148161635E-07 1.771202821E-01
7.100000000E+00 9.999755951E-01 2.908409989E-06 1.746256302E-01
7.200000000E+00 9.999749475E-01 4.119485305E-06 1.722002742E-01
7.300000000E+00 9.999748015E-01 4.081318233E-06 1.698413664E-01
7.400000000E+00 9.999750045E-01 3.911775864E-06 1.675462128E-01
7.500000000E+00 9.999751594E-01 3.706141261E-06 1.653122633E-01
7.600000000E+00 9.999755383E-01 3.534295257E-06 1.631371019E-01
7.700000000E+00 9.999760478E-01 3.409352948E-06 1.610184383E-01
7.800000000E+00 9.999763978E-01 3.224202370E-06 1.589540993E-01
7.900000000E+00 9.999768854E-01 3.103026705E-06 1.569420221E-01
8.000000000E+00 9.999772995E-01 2.945661068E-06 1.549802468E-01
8.100000000E+00 9.999777444E-01 2.817193863E-06 1.530669104E-01
8.200000000E+00 9.999782739E-01 2.743884839E-06 1.512002408E-01
8.300000000E+00 9.999786376E-01 2.582986389E-06 1.493785512E-01
8.400000000E+00 9.999791009E-01 2.496147545E-06 1.476002351E-01
8.500000000E+00 9.999794963E-01 2.372238829E-06 1.458637617E-01
8.600000000E+00 9.999799116E-01 2.276185693E-06 1.441676715E-01
8.700000000E+00 9.999803708E-01 2.224160310E-06 1.425105718E-01
8.800000000E+00 9.999807178E-01 2.091590182E-06 1.408911335E-01
8.900000000E+00 9.999811264E-01 2.025886064E-06 1.393080870E-01
9.000000000E+00 9.999814873E-01 1.926899222E-06 1.377602194E-01
9.100000000E+00 9.999818757E-01 1.869069804E-06 1.362463708E-01
9.200000000E+00 9.999822214E-01 1.778385147E-06 1.347654320E-01
9.300000000E+00 9.999825769E-01 1.713272833E-06 1.333163414E-01
9.400000000E+00 9.999829456E-01 1.677014116E-06 1.318980824E-01
9.500000000E+00 9.999832530E-01 1.582057536E-06 1.305096815E-01
9.600000000E+00 9.999835888E-01 1.535811455E-06 1.291502057E-01
9.700000000E+00 9.999838975E-01 1.466052167E-06 1.278187603E-01
9.800000000E+00 9.999842238E-01 1.435507314E-06 1.265144872E-01
9.900000000E+00 9.999845085E-01 1.360629789E-06 1.252365631E-01
1.000000000E+01 9.999848139E-01 1.329444846E-06 1.239841975E-01
1.010000000E+01 9.999850888E-01 1.265260612E-06 1.227566311E-01
1.020000000E+01 9.999853667E-01 1.220404504E-06 1.215531348E-01
1.030000000E+01 9.999856495E-01 1.196822364E-06 1.203730072E-01
1.040000000E+01 9.999859026E-01 1.136823841E-06 1.192155745E-01
1.050000000E+01 9.999861596E-01 1.097674624E-06 1.180801881E-01
1.060000000E+01 9.999864183E-01 1.074882402E-06 1.169662240E-01
1.070000000E+01 9.999866556E-01 1.024760484E-06 1.158730817E-01
1.080000000E+01 9.999868937E-01 9.904994775E-07 1.148001828E-01
1.090000000E+01 9.999871329E-01 9.721595396E-07 1.137469701E-01
1.100000000E+01 9.999873522E-01 9.261756643E-07 1.127129068E-01
1.110000000E+01 9.999875735E-01 8.978011667E-07 1.116974752E-01
1.120000000E+01 9.999877944E-01 8.818405752E-07 1.107001763E-01
1.130000000E+01 9.999879976E-01 8.386739508E-07 1.097205287E-01
1.140000000E+01 9.999882023E-01 8.124444440E-07 1.087580679E-01
1.150000000E+01 9.999884066E-01 7.983764079E-07 1.078123456E-01
1.160000000E+01 9.999886056E-01 7.846706298E-07 1.068829288E-01
1.170000000E+01 9.999887870E-01 7.368610169E-07 1.059693995E-01
1.180000000E+01 9.999889723E-01 7.137403550E-07 1.050713538E-01
1.190000000E+01 9.999891561E-01 6.995596099E-07 1.041884012E-01
1.200000000E+01 9.999893361E-01 6.879488636E-07 1.033201645E-01
1.210000000E+01 9.999895116E-01 6.766247958E-07 1.024662789E-01
1.220000000E+01 9.999896731E-01 6.308317351E-07 1.016263914E-01
1.230000000E+01 9.999898379E-01 6.119360002E-07 1.008001605E-01
1.240000000E+01 9.999899988E-01 5.937030444E-07 9.998725601E-02
1.250000000E+01 9.999901559E-01 5.761051841E-07 9.918735797E-02
1.260000000E+01 9.999903097E-01 5.602568414E-07 9.840015671E-02
1.270000000E+01 9.999904617E-01 5.514686350E-07 9.762535233E-02
1.280000000E+01 9.999906101E-01 5.428855965E-07 9.686265426E-02
1.290000000E+01 9.999907552E-01 5.345013889E-07 9.611178098E-02
1.300000000E+01 9.999908968E-01 5.263099179E-07 9.537245958E-02
1.310000000E+01 9.999910286E-01 4.841502360E-07 9.464442554E-02
1.320000000E+01 9.999911628E-01 4.706094244E-07 9.392742232E-02
1.330000000E+01 9.999912940E-01 4.575119090E-07 9.322120110E-02
1.340000000E+01 9.999914223E-01 4.448404032E-07 9.252552049E-02
1.350000000E+01 9.999915478E-01 4.325784085E-07 9.184014627E-02
1.360000000E+01 9.999916710E-01 4.229920342E-07 9.116485107E-02
1.370000000E+01 9.999917921E-01 4.168395048E-07 9.049941420E-02
1.380000000E+01 9.999919106E-01 4.108202408E-07 8.984362135E-02
1.390000000E+01 9.999920266E-01 4.049304211E-07 8.919726436E-02
1.400000000E+01 9.999921401E-01 3.991663605E-07 8.856014104E-02
1.410000000E+01 9.999922512E-01 3.935245041E-07 8.793205493E-02
1.420000000E+01 9.999923565E-01 3.580890902E-07 8.731281511E-02
1.430000000E+01 9.999924625E-01 3.487384711E-07 8.670223598E-02
1.440000000E+01 9.999925664E-01 3.396718675E-07 8.610013712E-02
1.450000000E+01 9.999926681E-01 3.308790176E-07 8.550634307E-02
1.460000000E+01 9.999927677E-01 3.223500928E-07 8.492068319E-02
1.470000000E+01 9.999928653E-01 3.140756770E-07 8.434299147E-02
1.480000000E+01 9.999929610E-01 3.060844442E-07 8.377310639E-02
1.490000000E+01 9.999930551E-01 3.019897151E-07 8.321087078E-02
1.500000000E+01 9.999931474E-01 2.979766073E-07 8.265613164E-02
1.510000000E+01 9.999932379E-01 2.940429659E-07 8.210874004E-02
1.520000000E+01 9.999933266E-01 2.901867064E-07 8.156855096E-02
1.530000000E+01 9.999934135E-01 2.864058125E-07 8.103542318E-02
1.540000000E+01 9.999934988E-01 2.826983330E-07 8.050921913E-02
1.550000000E+01 9.999935824E-01 2.790623794E-07 7.998980481E-02
1.560000000E+01 9.999936644E-01 2.754961236E-07 7.947704965E-02
1.570000000E+01 9.999937449E-01 2.719977956E-07 7.897082641E-02
1.580000000E+01 9.999938240E-01 2.396383758E-07 7.847101105E-02
1.590000000E+01 9.999939014E-01 2.339775266E-07 7.797748268E-02
1.600000000E+01 9.999939774E-01 2.284718210E-07 7.749012341E-02
1.610000000E+01 9.999940520E-01 2.231162023E-07 7.700881830E-02
1.620000000E+01 9.999941252E-01 2.179058062E-07 7.653345522E-02
1.630000000E+01 9.999941971E-01 2.128359531E-07 7.606392482E-02
1.640000000E+01 9.999942677E-01 2.079021393E-07 7.560012040E-02
1.650000000E+01 9.999943370E-01 2.031000301E-07 7.514193785E-02
1.660000000E+01 9.999944050E-01 1.984254520E-07 7.468927558E-02
1.670000000E+01 9.999944718E-01 1.938743862E-07 7.424203441E-02
1.680000000E+01 9.999945375E-01 1.903416566E-07 7.380011753E-02
1.690000000E+01 9.999946019E-01 1.880957570E-07 7.336343045E-02
1.700000000E+01 9.999946652E-01 1.858893742E-07 7.293188086E-02
1.710000000E+01 9.999947274E-01 1.837215866E-07 7.250537863E-02
1.720000000E+01 9.999947886E-01 1.815914993E-07 7.208383573E-02
1.730000000E+01 9.999948486E-01 1.794982430E-07 7.166716616E-02
1.740000000E+01 9.999949077E-01 1.774409735E-07 7.125528590E-02
1.750000000E+01 9.999949657E-01 1.754188707E-07 7.084811283E-02
1.760000000E+01 9.999950228E-01 1.734311375E-07 7.044556674E-02
1.770000000E+01 9.999950788E-01 1.714769994E-07 7.004756919E-02
1.780000000E+01 9.999951340E-01 1.695557037E-07 6.965404352E-02
1.790000000E+01 9.999951902E-01 1.491316692E-07 6.926491478E-02
1.800000000E+01 9.999952437E-01 1.459854325E-07 6.888010970E-02
1.810000000E+01 9.999952962E-01 1.429157540E-07 6.849955661E-02
1.820000000E+01 9.999953479E-01 1.399204205E-07 6.812318542E-02
1.830000000E+01 9.999953988E-01 1.369972936E-07 6.775092757E-02
1.840000000E+01 9.999954488E-01 1.341443069E-07 6.738271601E-02
1.850000000E+01 9.999954980E-01 1.313594631E-07 6.701848511E-02
1.860000000E+01 9.999955464E-01 1.286408311E-07 6.665817068E-02
1.870000000E+01 9.999955941E-01 1.259865442E-07 6.630170987E-02
1.880000000E+01 9.999956410E-01 1.233947968E-07 6.594904120E-02
1.890000000E+01 9.999956871E-01 1.208638427E-07 6.560010448E-02
1.900000000E+01 9.999957325E-01 1.183919928E-07 6.525484077E-02
1.910000000E+01 9.999957771E-01 1.166293024E-07 6.491319239E-02
1.920000000E+01 9.999958210E-01 1.154175776E-07 6.457510284E-02
1.930000000E+01 9.999958642E-01 1.142246391E-07 6.424051682E-02
1.940000000E+01 9.999959067E-01 1.130501005E-07 6.390938013E-02
1.950000000E+01 9.999959486E-01 1.118935853E-07 6.358163972E-02
1.960000000E+01 9.999959898E-01 1.107547267E-07 6.325724360E-02
1.970000000E+01 9.999960305E-01 1.096331671E-07 6.293614084E-02
1.980000000E+01 9.999960704E-01 1.085285579E-07 6.261828154E-02
1.990000000E+01 9.999961098E-01 1.074405591E-07 6.230361681E-02
2.000000000E+01 9.999961486E-01 1.063688396E-07 6.199209873E-02
2.010000000E+01 9.999961869E-01 1.053130760E-07 6.168368033E-02
2.020000000E+01 9.999962245E-01 1.042729532E-07 6.137831557E-02
2.030000000E+01 9.999962641E-01 9.205272094E-08 6.107595934E-02
2.040000000E+01 9.999963008E-01 9.032810416E-08 6.077656738E-02
2.050000000E+01 9.999963369E-01 8.864063969E-08 6.048009632E-02
2.060000000E+01 9.999963726E-01 8.698937703E-08 6.018650362E-02
2.070000000E+01 9.999964077E-01 8.537339412E-08 5.989574756E-02
2.080000000E+01 9.999964424E-01 8.379179636E-08 5.960778724E-02
2.090000000E+01 9.999964765E-01 8.224371569E-08 5.932258252E-02
2.100000000E+01 9.999965101E-01 8.072830964E-08 5.904009403E-02
2.110000000E+01 9.999965433E-01 7.924476053E-08 5.876028316E-02
2.120000000E+01 9.999965760E-01 7.779227456E-08 5.848311201E-02
2.130000000E+01 9.999966082E-01 7.637008107E-08 5.820854341E-02
2.140000000E+01 9.999966400E-01 7.497743174E-08 5.793654087E-02
2.150000000E+01 9.999966713E-01 7.361359983E-08 5.766706859E-02
2.160000000E+01 9.999967021E-01 7.281490877E-08 5.740009142E-02
2.170000000E+01 9.999967324E-01 7.214534995E-08 5.713557487E-02
2.180000000E+01 9.999967623E-01 7.148498408E-08 5.687348507E-02
2.190000000E+01 9.999967918E-01 7.083364366E-08 5.661378879E-02
2.200000000E+01 9.999968209E-01 7.019116495E-08 5.635645339E-02
2.210000000E+01 9.999968496E-01 6.955738792E-08 5.610144681E-02
2.220000000E+01 9.999968779E-01 6.893215615E-08 5.584873759E-02
2.230000000E+01 9.999969059E-01 6.831531669E-08 5.559829482E-02
2.240000000E+01 9.999969334E-01 6.770672002E-08 5.535008815E-02
2.250000000E+01 9.999969606E-01 6.710621992E-08 5.510408776E-02
2.260000000E+01 9.999969875E-01 6.651367342E-08 5.486026436E-02
2.270000000E+01 9.999970139E-01 6.592894067E-08 5.461858919E-02
2.280000000E+01 9.999970401E-01 6.535188488E-08 5.437903397E-02
2.290000000E+01 9.999970680E-01 5.780020031E-08 5.414157094E-02
2.300000000E+01 9.999970936E-01 5.683010505E-08 5.390617281E-02
2.310000000E+01 9.999971189E-01 5.587862714E-08 5.367281275E-02
2.320000000E+01 9.999971438E-01 5.494534270E-08 5.344146442E-02
2.330000000E+01 9.999971684E-01 5.402983916E-08 5.321210191E-02
2.340000000E+01 9.999971927E-01 5.313171488E-08 5.298469977E-02
2.350000000E+01 9.999972166E-01 5.225057882E-08 5.275923296E-02
2.360000000E+01 9.999972403E-01 5.138605023E-08 5.253567689E-02
2.370000000E+01 9.999972637E-01 5.053775834E-08 5.231400737E-02
2.380000000E+01 9.999972867E-01 4.970534205E-08 5.209420061E-02
2.390000000E+01 9.999973095E-01 4.888844963E-08 5.187623325E-02
2.400000000E+01 9.999973320E-01 4.808673849E-08 5.166008227E-02
2.410000000E+01 9.999973542E-01 4.729987484E-08 5.144572509E-02
2.420000000E+01 9.999973762E-01 4.652753348E-08 5.123313945E-02
2.430000000E+01 9.999973978E-01 4.589342330E-08 5.102230348E-02
2.440000000E+01 9.999974191E-01 4.551801855E-08 5.081319568E-02
2.450000000E+01 9.999974401E-01 4.514720121E-08 5.060579488E-02
2.460000000E+01 9.999974609E-01 4.478089683E-08 5.040008027E-02
2.470000000E+01 9.999974814E-01 4.441903248E-08 5.019603136E-02
2.480000000E+01 9.999975017E-01 4.406153669E-08 4.999362801E-02
2.490000000E+01 9.999975217E-01 4.370833942E-08 4.979285038E-02
2.500000000E+01 9.999975415E-01 4.335937204E-08 4.959367898E-02
2.510000000E+01 9.999975610E-01 4.301456727E-08 4.939609460E-02
2.520000000E+01 9.999975804E-01 4.267385917E-08 4.920007836E-02
2.530000000E+01 9.999975994E-01 4.233718309E-08 4.900561164E-02
2.540000000E+01 9.999976183E-01 4.200447567E-08 4.881267616E-02
2.550000000E+01 9.999976370E-01 4.167567478E-08 4.862125391E-02
2.560000000E+01 9.999976554E-01 4.135071949E-08 4.843132713E-02
2.570000000E+01 9.999976736E-01 4.102955007E-08 4.824287839E-02
2.580000000E+01 9.999976933E-01 3.635389596E-08 4.805589049E-02
2.590000000E+01 9.999977112E-01 3.580941185E-08 4.787034651E-02
2.600000000E+01 9.999977289E-01 3.527423023E-08 4.768622979E-02
2.610000000E+01 9.999977463E-01 3.474816260E-08 4.750352393E-02
2.620000000E+01 9.999977636E-01 3.423102493E-08 4.732221277E-02
2.630000000E+01 9.999977807E-01 3.372263754E-08 4.714228040E-02
2.640000000E+01 9.999977976E-01 3.322282498E-08 4.696371116E-02
2.650000000E+01 9.999978143E-01 3.273141590E-08 4.678648961E-02
2.660000000E+01 9.999978307E-01 3.224824296E-08 4.661060055E-02
2.670000000E+01 9.999978471E-01 3.177314272E-08 4.643602901E-02
2.680000000E+01 9.999978632E-01 3.130595553E-08 4.626276025E-02
2.690000000E+01 9.999978791E-01 3.084652542E-08 4.609077972E-02
2.700000000E+01 9.999978949E-01 3.039470003E-08 4.592007313E-02
2.710000000E+01 9.999979105E-01 2.995033047E-08 4.575062637E-02
2.720000000E+01 9.999979259E-01 2.951327128E-08 4.558242554E-02
2.730000000E+01 9.999979412E-01 2.908338032E-08 4.541545694E-02
2.740000000E+01 9.999979563E-01 2.866051864E-08 4.524970710E-02
2.750000000E+01 9.999979712E-01 2.826417302E-08 4.508516271E-02
2.760000000E+01 9.999979858E-01 2.805973121E-08 4.492181067E-02
2.770000000E+01 9.999980004E-01 2.785749957E-08 4.475963807E-02
2.780000000E+01 9.999980147E-01 2.765744636E-08 4.459863218E-02
2.790000000E+01 9.999980289E-01 2.745954040E-08 4.443878045E-02
2.800000000E+01 9.999980430E-01 2.726375108E-08 4.428007052E-02
2.810000000E+01 9.999980569E-01 2.707004831E-08 4.412249020E-02
2.820000000E+01 9.999980706E-01 2.687840255E-08 4.396602747E-02
2.830000000E+01 9.999980843E-01 2.668878478E-08 4.381067048E-02
2.840000000E+01 9.999980977E-01 2.650116649E-08 4.365640756E-02
2.850000000E+01 9.999981110E-01 2.631551966E-08 4.350322718E-02
2.860000000E+01 9.999981242E-01 2.613181677E-08 4.335111799E-02
2.870000000E+01 9.999981373E-01 2.595003077E-08 4.320006880E-02
2.880000000E+01 9.999981502E-01 2.577013508E-08 4.305006856E-02
2.890000000E+01 9.999981630E-01 2.559210359E-08 4.290110639E-02
2.900000000E+01 9.999981756E-01 2.541591063E-08 4.275317154E-02
2.910000000E+01 9.999981881E-01 2.524153097E-08 4.260625342E-02
2.920000000E+01 9.999982018E-01 2.239504838E-08 4.246034160E-02
2.930000000E+01 9.999982141E-01 2.209668536E-08 4.231542575E-02
2.940000000E+01 9.999982263E-01 2.180284141E-08 4.217149573E-02
2.950000000E+01 9.999982384E-01 2.151343541E-08 4.202854151E-02
2.960000000E+01 9.999982504E-01 2.122838792E-08 4.188655320E-02
2.970000000E+01 9.999982622E-01 2.094762117E-08 4.174552103E-02
2.980000000E+01 9.999982739E-01 2.067105902E-08 4.160543539E-02
2.990000000E+01 9.999982855E-01 2.039862692E-08 4.146628678E-02
3.000000000E+01 9.999982970E-01 2.013025183E-08 4.132806582E-02
3.010000000E+01 9.999983083E-01 1.986586227E-08 4.119076328E-02
3.020000000E+01 9.999983196E-01 1.960538818E-08 4.105437002E-02
3.030000000E+01 9.999983307E-01 1.934876099E-08 4.091887705E-02
3.040000000E+01 9.999983417E-01 1.909591349E-08 4.078427548E-02
3.050000000E+01 9.999983527E-01 1.884677987E-08 4.065055654E-02
3.060000000E+01 9.999983635E-01 1.860129565E-08 4.051771159E-02
3.070000000E+01 9.999983742E-01 1.835939766E-08 4.038573207E-02
3.080000000E+01 9.999983848E-01 1.812102400E-08 4.025460956E-02
3.090000000E+01 9.999983953E-01 1.788611402E-08 4.012433575E-02
3.100000000E+01 9.999984056E-01 1.769679758E-08 3.999490241E-02
3.110000000E+01 9.999984159E-01 1.758317478E-08 3.986630143E-02
3.120000000E+01 9.999984260E-01 1.747064275E-08 3.973852483E-02
3.130000000E+01 9.999984361E-01 1.735918757E-08 3.961156468E-02
3.140000000E+01 9.999984460E-01 1.724879556E-08 3.948541320E-02
3.150000000E+01 9.999984558E-01 1.713945324E-08 3.936006269E-02
3.160000000E+01 9.999984656E-01 1.703114733E-08 3.923550552E-02
3.170000000E+01 9.999984753E-01 1.692386478E-08 3.911173421E-02
