# 04/03/2022 
# Density retrieved from www.chemicool.com/densities.html 
# Includes the real (n) and complex (k) part of the  refractive index. 
# Element, Fr  (Z = 87) 
# Nominal density, g cm-3 =  1.873 
#    E [keV]      n       k    Wavelength [nm] 
1.000000000E+00 9.998135246E-01 1.130636382E-04 1.239841975E+00
1.100000000E+00 9.998358875E-01 8.573042629E-05 1.127129068E+00
1.200000000E+00 9.998566601E-01 6.772106104E-05 1.033201645E+00
1.300000000E+00 9.998775371E-01 5.744359173E-05 9.537245958E-01
1.400000000E+00 9.998896950E-01 4.297114511E-05 8.856014104E-01
1.500000000E+00 9.999034370E-01 3.677126731E-05 8.265613164E-01
1.600000000E+00 9.999137283E-01 2.862481685E-05 7.749012341E-01
1.700000000E+00 9.999229798E-01 2.377637959E-05 7.293188086E-01
1.800000000E+00 9.999312040E-01 2.095551237E-05 6.888010970E-01
1.900000000E+00 9.999382568E-01 1.680666677E-05 6.525484077E-01
2.000000000E+00 9.999442775E-01 1.430913918E-05 6.199209873E-01
2.100000000E+00 9.999494586E-01 1.237552403E-05 5.904009403E-01
2.200000000E+00 9.999539488E-01 1.127604565E-05 5.635645339E-01
2.300000000E+00 9.999586260E-01 9.183539187E-06 5.390617281E-01
2.400000000E+00 9.999622839E-01 8.013664807E-06 5.166008227E-01
2.500000000E+00 9.999652808E-01 7.325879054E-06 4.959367898E-01
2.600000000E+00 9.999690417E-01 6.191926440E-06 4.768622979E-01
2.700000000E+00 9.999716422E-01 5.563721923E-06 4.592007313E-01
2.800000000E+00 9.999750225E-01 4.866939441E-06 4.428007052E-01
2.900000000E+00 9.999784458E-01 4.341034094E-06 4.275317154E-01
3.000000000E+00 9.999842845E-01 7.367186847E-06 4.132806582E-01
3.100000000E+00 9.999823052E-01 9.677520462E-06 3.999490241E-01
3.200000000E+00 9.999816790E-01 1.157904993E-05 3.874506171E-01
3.300000000E+00 9.999805677E-01 1.023013813E-05 3.757096893E-01
3.400000000E+00 9.999808454E-01 9.169523982E-06 3.646594043E-01
3.500000000E+00 9.999815036E-01 8.278092863E-06 3.542405642E-01
3.600000000E+00 9.999825095E-01 7.571113051E-06 3.444005485E-01
3.700000000E+00 9.999833030E-01 7.801649707E-06 3.350924256E-01
3.800000000E+00 9.999831827E-01 7.223645947E-06 3.262742038E-01
3.900000000E+00 9.999839161E-01 6.798784517E-06 3.179081986E-01
4.000000000E+00 9.999842024E-01 6.065038384E-06 3.099604936E-01
4.100000000E+00 9.999847871E-01 5.547086897E-06 3.024004816E-01
4.200000000E+00 9.999853947E-01 5.147671441E-06 2.952004701E-01
4.300000000E+00 9.999860588E-01 4.779634352E-06 2.883353429E-01
4.400000000E+00 9.999864898E-01 4.576507599E-06 2.817822670E-01
4.500000000E+00 9.999869413E-01 4.271807911E-06 2.755204388E-01
4.600000000E+00 9.999874289E-01 4.020564203E-06 2.695308640E-01
4.700000000E+00 9.999879376E-01 3.853020685E-06 2.637961648E-01
4.800000000E+00 9.999882272E-01 3.599813255E-06 2.583004114E-01
4.900000000E+00 9.999885911E-01 3.325514870E-06 2.530289744E-01
5.000000000E+00 9.999889643E-01 3.103114802E-06 2.479683949E-01
5.100000000E+00 9.999893919E-01 2.981558419E-06 2.431062695E-01
5.200000000E+00 9.999896977E-01 2.713481178E-06 2.384311490E-01
5.300000000E+00 9.999900378E-01 2.541441440E-06 2.339324480E-01
5.400000000E+00 9.999903781E-01 2.408512987E-06 2.296003657E-01
5.500000000E+00 9.999907248E-01 2.321726899E-06 2.254258136E-01
5.600000000E+00 9.999909893E-01 2.103273473E-06 2.214003526E-01
5.700000000E+00 9.999912786E-01 1.978557267E-06 2.175161359E-01
5.800000000E+00 9.999915542E-01 1.862834873E-06 2.137658577E-01
5.900000000E+00 9.999918343E-01 1.792111502E-06 2.101427076E-01
6.000000000E+00 9.999921042E-01 1.732872261E-06 2.066403291E-01
6.100000000E+00 9.999923224E-01 1.564502616E-06 2.032527827E-01
6.200000000E+00 9.999925556E-01 1.478383195E-06 1.999745120E-01
6.300000000E+00 9.999927784E-01 1.398008582E-06 1.968003134E-01
6.400000000E+00 9.999929994E-01 1.346113082E-06 1.937253085E-01
6.500000000E+00 9.999932131E-01 1.305012824E-06 1.907449192E-01
6.600000000E+00 9.999934172E-01 1.265766571E-06 1.878548446E-01
6.700000000E+00 9.999935902E-01 1.127803283E-06 1.850510410E-01
6.800000000E+00 9.999937720E-01 1.070574221E-06 1.823297021E-01
6.900000000E+00 9.999939462E-01 1.016849121E-06 1.796872427E-01
7.000000000E+00 9.999941165E-01 9.812647866E-07 1.771202821E-01
7.100000000E+00 9.999942810E-01 9.538181818E-07 1.746256302E-01
7.200000000E+00 9.999944388E-01 9.275072250E-07 1.722002742E-01
7.300000000E+00 9.999945901E-01 9.022701171E-07 1.698413664E-01
7.400000000E+00 9.999947269E-01 7.970233064E-07 1.675462128E-01
7.500000000E+00 9.999948650E-01 7.603738360E-07 1.653122633E-01
7.600000000E+00 9.999949977E-01 7.257628022E-07 1.631371019E-01
7.700000000E+00 9.999951253E-01 6.930543720E-07 1.610184383E-01
7.800000000E+00 9.999952481E-01 6.621232897E-07 1.589540993E-01
7.900000000E+00 9.999953668E-01 6.373668719E-07 1.569420221E-01
8.000000000E+00 9.999954819E-01 6.215322887E-07 1.549802468E-01
8.100000000E+00 9.999955928E-01 6.062805438E-07 1.530669104E-01
8.200000000E+00 9.999956996E-01 5.915833801E-07 1.512002408E-01
8.300000000E+00 9.999958026E-01 5.774142325E-07 1.493785512E-01
8.400000000E+00 9.999959020E-01 5.637481077E-07 1.476002351E-01
8.500000000E+00 9.999960010E-01 4.894953886E-07 1.458637617E-01
8.600000000E+00 9.999960939E-01 4.696021611E-07 1.441676715E-01
8.700000000E+00 9.999961836E-01 4.506816048E-07 1.425105718E-01
8.800000000E+00 9.999962702E-01 4.326767725E-07 1.408911335E-01
8.900000000E+00 9.999963539E-01 4.155346152E-07 1.393080870E-01
9.000000000E+00 9.999964349E-01 3.992056774E-07 1.377602194E-01
9.100000000E+00 9.999965130E-01 3.862547468E-07 1.362463708E-01
9.200000000E+00 9.999965884E-01 3.779035395E-07 1.347654320E-01
9.300000000E+00 9.999966614E-01 3.698202750E-07 1.333163414E-01
9.400000000E+00 9.999967320E-01 3.619936123E-07 1.318980824E-01
9.500000000E+00 9.999968005E-01 3.544128043E-07 1.305096815E-01
9.600000000E+00 9.999968668E-01 3.470676604E-07 1.291502057E-01
9.700000000E+00 9.999969311E-01 3.399485130E-07 1.278187603E-01
9.800000000E+00 9.999970024E-01 2.955839888E-07 1.265144872E-01
9.900000000E+00 9.999970637E-01 2.850926725E-07 1.252365631E-01
1.000000000E+01 9.999971232E-01 2.750489844E-07 1.239841975E-01
1.010000000E+01 9.999971809E-01 2.654300382E-07 1.227566311E-01
1.020000000E+01 9.999972369E-01 2.562143173E-07 1.215531348E-01
1.030000000E+01 9.999972912E-01 2.473815808E-07 1.203730072E-01
1.040000000E+01 9.999973439E-01 2.389127771E-07 1.192155745E-01
1.050000000E+01 9.999973952E-01 2.307899635E-07 1.180801881E-01
1.060000000E+01 9.999974441E-01 2.261434448E-07 1.169662240E-01
1.070000000E+01 9.999974917E-01 2.219362168E-07 1.158730817E-01
1.080000000E+01 9.999975379E-01 2.178453143E-07 1.148001828E-01
1.090000000E+01 9.999975829E-01 2.138664882E-07 1.137469701E-01
1.100000000E+01 9.999976266E-01 2.099956815E-07 1.127129068E-01
1.110000000E+01 9.999976692E-01 2.062290192E-07 1.116974752E-01
1.120000000E+01 9.999977107E-01 2.025627986E-07 1.107001763E-01
1.130000000E+01 9.999977633E-01 1.779522524E-07 1.097205287E-01
1.140000000E+01 9.999978037E-01 1.724347795E-07 1.087580679E-01
1.150000000E+01 9.999978431E-01 1.671226464E-07 1.078123456E-01
1.160000000E+01 9.999978815E-01 1.620066915E-07 1.068829288E-01
1.170000000E+01 9.999979188E-01 1.570782321E-07 1.059693995E-01
1.180000000E+01 9.999979551E-01 1.523290358E-07 1.050713538E-01
1.190000000E+01 9.999979905E-01 1.477512936E-07 1.041884012E-01
1.200000000E+01 9.999980250E-01 1.433375949E-07 1.033201645E-01
1.210000000E+01 9.999980587E-01 1.390809042E-07 1.024662789E-01
1.220000000E+01 9.999980906E-01 1.363261606E-07 1.016263914E-01
1.230000000E+01 9.999981216E-01 1.341184860E-07 1.008001605E-01
1.240000000E+01 9.999981517E-01 1.319640072E-07 9.998725601E-02
1.250000000E+01 9.999981812E-01 1.298610288E-07 9.918735797E-02
1.260000000E+01 9.999982099E-01 1.278079223E-07 9.840015671E-02
1.270000000E+01 9.999982490E-01 1.169991938E-07 9.762535233E-02
1.280000000E+01 9.999982781E-01 1.137472653E-07 9.686265426E-02
1.290000000E+01 9.999983064E-01 1.106035622E-07 9.611178098E-02
1.300000000E+01 9.999983340E-01 1.075637668E-07 9.537245958E-02
1.310000000E+01 9.999983610E-01 1.046237635E-07 9.464442554E-02
1.320000000E+01 9.999983873E-01 1.017796276E-07 9.392742232E-02
1.330000000E+01 9.999984128E-01 9.915133952E-08 9.322120110E-02
1.340000000E+01 9.999984364E-01 9.767699068E-08 9.252552049E-02
1.350000000E+01 9.999984595E-01 9.623528366E-08 9.184014627E-02
1.360000000E+01 9.999984821E-01 9.482526193E-08 9.116485107E-02
1.370000000E+01 9.999985152E-01 8.906204684E-08 9.049941420E-02
1.380000000E+01 9.999985391E-01 8.676147997E-08 8.984362135E-02
1.390000000E+01 9.999985626E-01 8.453204682E-08 8.919726436E-02
1.400000000E+01 9.999985854E-01 8.237111002E-08 8.856014104E-02
1.410000000E+01 9.999986058E-01 8.103859649E-08 8.793205493E-02
1.420000000E+01 9.999986254E-01 7.990122678E-08 8.731281511E-02
1.430000000E+01 9.999986565E-01 7.631936387E-08 8.670223598E-02
1.440000000E+01 9.999986791E-01 7.442286930E-08 8.610013712E-02
1.450000000E+01 9.999986998E-01 7.288463028E-08 8.550634307E-02
1.460000000E+01 9.999987279E-01 7.098372592E-08 8.492068319E-02
1.470000000E+01 9.999987520E-01 6.942845002E-08 8.434299147E-02
1.480000000E+01 9.999987822E-01 7.010880695E-08 8.377310639E-02
1.490000000E+01 9.999988159E-01 7.971242342E-08 8.321087078E-02
1.500000000E+01 9.999988438E-01 9.990570042E-08 8.265613164E-02
1.510000000E+01 9.999988564E-01 1.237672725E-07 8.210874004E-02
1.520000000E+01 9.999988595E-01 1.377208959E-07 8.156855096E-02
1.530000000E+01 9.999988567E-01 1.438343370E-07 8.103542318E-02
1.540000000E+01 9.999988593E-01 1.419096449E-07 8.050921913E-02
1.550000000E+01 9.999988693E-01 1.400605042E-07 7.998980481E-02
1.560000000E+01 9.999988752E-01 1.360388694E-07 7.947704965E-02
1.570000000E+01 9.999988842E-01 1.329208958E-07 7.897082641E-02
1.580000000E+01 9.999988976E-01 1.310633159E-07 7.847101105E-02
1.590000000E+01 9.999989114E-01 1.294199050E-07 7.797748268E-02
1.600000000E+01 9.999989174E-01 1.239850439E-07 7.749012341E-02
1.610000000E+01 9.999989283E-01 1.211649250E-07 7.700881830E-02
1.620000000E+01 9.999989406E-01 1.192301864E-07 7.653345522E-02
1.630000000E+01 9.999989536E-01 1.177717269E-07 7.606392482E-02
1.640000000E+01 9.999989663E-01 1.163398651E-07 7.560012040E-02
1.650000000E+01 9.999989750E-01 1.106709910E-07 7.514193785E-02
1.660000000E+01 9.999989863E-01 1.082192637E-07 7.468927558E-02
1.670000000E+01 9.999989977E-01 1.061121507E-07 7.424203441E-02
1.680000000E+01 9.999990096E-01 1.048526705E-07 7.380011753E-02
1.690000000E+01 9.999990213E-01 1.036154817E-07 7.336343045E-02
1.700000000E+01 9.999990331E-01 9.912892804E-08 7.293188086E-02
1.710000000E+01 9.999990444E-01 9.700510713E-08 7.250537863E-02
1.720000000E+01 9.999990556E-01 9.493495541E-08 7.208383573E-02
1.730000000E+01 9.999990665E-01 9.369688693E-08 7.166716616E-02
1.740000000E+01 9.999990798E-01 9.098840705E-08 7.125528590E-02
1.750000000E+01 9.999990917E-01 8.908996557E-08 7.084811283E-02
1.760000000E+01 9.999991029E-01 8.755138118E-08 7.044556674E-02
1.770000000E+01 9.999991184E-01 8.716814088E-08 7.004756919E-02
1.780000000E+01 9.999991305E-01 8.644024616E-08 6.965404352E-02
1.790000000E+01 9.999991461E-01 9.224989150E-08 6.926491478E-02
1.800000000E+01 9.999991555E-01 9.839528955E-08 6.888010970E-02
1.810000000E+01 9.999991647E-01 1.007201225E-07 6.849955661E-02
1.820000000E+01 9.999991674E-01 1.057656511E-07 6.812318542E-02
1.830000000E+01 9.999991736E-01 1.054659879E-07 6.775092757E-02
1.840000000E+01 9.999991801E-01 1.048982451E-07 6.738271601E-02
1.850000000E+01 9.999991889E-01 1.037672750E-07 6.701848511E-02
1.860000000E+01 9.999991950E-01 1.069880997E-07 6.665817068E-02
1.870000000E+01 9.999992029E-01 1.071049904E-07 6.630170987E-02
1.880000000E+01 9.999992062E-01 1.079525690E-07 6.594904120E-02
1.890000000E+01 9.999992109E-01 1.082130199E-07 6.560010448E-02
1.900000000E+01 9.999992186E-01 1.073128731E-07 6.525484077E-02
1.910000000E+01 9.999992217E-01 1.049738707E-07 6.491319239E-02
1.920000000E+01 9.999992271E-01 1.032336540E-07 6.457510284E-02
1.930000000E+01 9.999992347E-01 1.020947398E-07 6.424051682E-02
1.940000000E+01 9.999992426E-01 1.010449294E-07 6.390938013E-02
1.950000000E+01 9.999992457E-01 9.780616235E-08 6.358163972E-02
1.960000000E+01 9.999992519E-01 9.606979091E-08 6.325724360E-02
1.970000000E+01 9.999992582E-01 9.451800619E-08 6.293614084E-02
1.980000000E+01 9.999992657E-01 9.356568979E-08 6.261828154E-02
1.990000000E+01 9.999992731E-01 9.262769380E-08 6.230361681E-02
2.000000000E+01 9.999992803E-01 9.170373256E-08 6.199209873E-02
2.010000000E+01 9.999992832E-01 8.791832683E-08 6.168368033E-02
2.020000000E+01 9.999992892E-01 8.639017670E-08 6.137831557E-02
2.030000000E+01 9.999992953E-01 8.489423364E-08 6.107595934E-02
2.040000000E+01 9.999993017E-01 8.374865644E-08 6.077656738E-02
2.050000000E+01 9.999993085E-01 8.293358920E-08 6.048009632E-02
2.060000000E+01 9.999993152E-01 8.213036305E-08 6.018650362E-02
2.070000000E+01 9.999993218E-01 8.133874971E-08 5.989574756E-02
2.080000000E+01 9.999993253E-01 7.788184496E-08 5.960778724E-02
2.090000000E+01 9.999993311E-01 7.656524622E-08 5.932258252E-02
2.100000000E+01 9.999993368E-01 7.527554003E-08 5.904009403E-02
2.110000000E+01 9.999993424E-01 7.401206479E-08 5.876028316E-02
2.120000000E+01 9.999993482E-01 7.290623404E-08 5.848311201E-02
2.130000000E+01 9.999993543E-01 7.222327542E-08 5.820854341E-02
2.140000000E+01 9.999993603E-01 7.154986861E-08 5.793654087E-02
2.150000000E+01 9.999993662E-01 7.088583629E-08 5.766706859E-02
2.160000000E+01 9.999993721E-01 7.023100529E-08 5.740009142E-02
2.170000000E+01 9.999993756E-01 6.697989233E-08 5.713557487E-02
2.180000000E+01 9.999993809E-01 6.588871407E-08 5.687348507E-02
2.190000000E+01 9.999993861E-01 6.481895378E-08 5.661378879E-02
2.200000000E+01 9.999993912E-01 6.377010546E-08 5.635645339E-02
2.210000000E+01 9.999993964E-01 6.284520466E-08 5.610144681E-02
2.220000000E+01 9.999994019E-01 6.228030681E-08 5.584873759E-02
2.230000000E+01 9.999994072E-01 6.172299143E-08 5.559829482E-02
2.240000000E+01 9.999994125E-01 6.117312342E-08 5.535008815E-02
2.250000000E+01 9.999994177E-01 6.063057068E-08 5.510408776E-02
2.260000000E+01 9.999994228E-01 6.009520402E-08 5.486026436E-02
2.270000000E+01 9.999994261E-01 5.703161818E-08 5.461858919E-02
2.280000000E+01 9.999994309E-01 5.614181393E-08 5.437903397E-02
2.290000000E+01 9.999994356E-01 5.526872494E-08 5.414157094E-02
2.300000000E+01 9.999994402E-01 5.441197329E-08 5.390617281E-02
2.310000000E+01 9.999994448E-01 5.357119113E-08 5.367281275E-02
2.320000000E+01 9.999994493E-01 5.283759512E-08 5.344146442E-02
2.330000000E+01 9.999994541E-01 5.238502680E-08 5.321210191E-02
2.340000000E+01 9.999994587E-01 5.193824823E-08 5.298469977E-02
2.350000000E+01 9.999994633E-01 5.149716107E-08 5.275923296E-02
2.360000000E+01 9.999994679E-01 5.106166906E-08 5.253567689E-02
2.370000000E+01 9.999994723E-01 5.063167797E-08 5.231400737E-02
2.380000000E+01 9.999994768E-01 5.020709554E-08 5.209420061E-02
2.390000000E+01 9.999994798E-01 4.744375020E-08 5.187623325E-02
2.400000000E+01 9.999994840E-01 4.673969307E-08 5.166008227E-02
2.410000000E+01 9.999994881E-01 4.604821091E-08 5.144572509E-02
2.420000000E+01 9.999994921E-01 4.536903340E-08 5.123313945E-02
2.430000000E+01 9.999994961E-01 4.470189706E-08 5.102230348E-02
2.440000000E+01 9.999995001E-01 4.404654505E-08 5.081319568E-02
2.450000000E+01 9.999995041E-01 4.350070420E-08 5.060579488E-02
2.460000000E+01 9.999995081E-01 4.314775877E-08 5.040008027E-02
2.470000000E+01 9.999995121E-01 4.279909144E-08 5.019603136E-02
2.480000000E+01 9.999995160E-01 4.245463335E-08 4.999362801E-02
2.490000000E+01 9.999995199E-01 4.211431702E-08 4.979285038E-02
2.500000000E+01 9.999995237E-01 4.177807632E-08 4.959367898E-02
2.510000000E+01 9.999995275E-01 4.144584641E-08 4.939609460E-02
2.520000000E+01 9.999995304E-01 3.925014221E-08 4.920007836E-02
2.530000000E+01 9.999995340E-01 3.869654974E-08 4.900561164E-02
2.540000000E+01 9.999995376E-01 3.815234695E-08 4.881267616E-02
2.550000000E+01 9.999995411E-01 3.761734216E-08 4.862125391E-02
2.560000000E+01 9.999995446E-01 3.709134833E-08 4.843132713E-02
2.570000000E+01 9.999995480E-01 3.657418286E-08 4.824287839E-02
2.580000000E+01 9.999995514E-01 3.606566752E-08 4.805589049E-02
2.590000000E+01 9.999995548E-01 3.563434241E-08 4.787034651E-02
2.600000000E+01 9.999995582E-01 3.536075922E-08 4.768622979E-02
2.610000000E+01 9.999995616E-01 3.509031463E-08 4.750352393E-02
2.620000000E+01 9.999995649E-01 3.482296083E-08 4.732221277E-02
2.630000000E+01 9.999995682E-01 3.455865088E-08 4.714228040E-02
2.640000000E+01 9.999995715E-01 3.429733877E-08 4.696371116E-02
2.650000000E+01 9.999995747E-01 3.403897932E-08 4.678648961E-02
2.660000000E+01 9.999995779E-01 3.378352822E-08 4.661060055E-02
2.670000000E+01 9.999995805E-01 3.189130954E-08 4.643602901E-02
2.680000000E+01 9.999995836E-01 3.146472894E-08 4.626276025E-02
2.690000000E+01 9.999995866E-01 3.104499331E-08 4.609077972E-02
2.700000000E+01 9.999995896E-01 3.063197053E-08 4.592007313E-02
2.710000000E+01 9.999995925E-01 3.022553151E-08 4.575062637E-02
2.720000000E+01 9.999995955E-01 2.982555005E-08 4.558242554E-02
2.730000000E+01 9.999995984E-01 2.943190282E-08 4.541545694E-02
2.740000000E+01 9.999996012E-01 2.904446926E-08 4.524970710E-02
2.750000000E+01 9.999996041E-01 2.867310357E-08 4.508516271E-02
2.760000000E+01 9.999996069E-01 2.846570386E-08 4.492181067E-02
2.770000000E+01 9.999996098E-01 2.826054630E-08 4.475963807E-02
2.780000000E+01 9.999996126E-01 2.805759869E-08 4.459863218E-02
2.790000000E+01 9.999996153E-01 2.785682940E-08 4.443878045E-02
2.800000000E+01 9.999996181E-01 2.765820736E-08 4.428007052E-02
2.810000000E+01 9.999996208E-01 2.746170207E-08 4.412249020E-02
2.820000000E+01 9.999996235E-01 2.726728355E-08 4.396602747E-02
2.830000000E+01 9.999996261E-01 2.707492236E-08 4.381067048E-02
2.840000000E+01 9.999996284E-01 2.552046126E-08 4.365640756E-02
2.850000000E+01 9.999996310E-01 2.519742918E-08 4.350322718E-02
2.860000000E+01 9.999996335E-01 2.487928487E-08 4.335111799E-02
2.870000000E+01 9.999996360E-01 2.456593945E-08 4.320006880E-02
2.880000000E+01 9.999996385E-01 2.425730595E-08 4.305006856E-02
2.890000000E+01 9.999996410E-01 2.395329926E-08 4.290110639E-02
2.900000000E+01 9.999996434E-01 2.365383605E-08 4.275317154E-02
2.910000000E+01 9.999996458E-01 2.335883480E-08 4.260625342E-02
2.920000000E+01 9.999996482E-01 2.306821566E-08 4.246034160E-02
2.930000000E+01 9.999996506E-01 2.289096454E-08 4.231542575E-02
2.940000000E+01 9.999996530E-01 2.273550852E-08 4.217149573E-02
2.950000000E+01 9.999996553E-01 2.258163073E-08 4.202854151E-02
2.960000000E+01 9.999996577E-01 2.242930988E-08 4.188655320E-02
2.970000000E+01 9.999996600E-01 2.227852503E-08 4.174552103E-02
2.980000000E+01 9.999996622E-01 2.212925560E-08 4.160543539E-02
2.990000000E+01 9.999996645E-01 2.198148135E-08 4.146628678E-02
3.000000000E+01 9.999996667E-01 2.183518238E-08 4.132806582E-02
3.010000000E+01 9.999996689E-01 2.169033912E-08 4.119076328E-02
3.020000000E+01 9.999996709E-01 2.042134747E-08 4.105437002E-02
3.030000000E+01 9.999996731E-01 2.017726475E-08 4.091887705E-02
3.040000000E+01 9.999996752E-01 1.993666216E-08 4.078427548E-02
3.050000000E+01 9.999996773E-01 1.969948009E-08 4.065055654E-02
3.060000000E+01 9.999996794E-01 1.946566014E-08 4.051771159E-02
3.070000000E+01 9.999996815E-01 1.923514508E-08 4.038573207E-02
3.080000000E+01 9.999996835E-01 1.900787884E-08 4.025460956E-02
3.090000000E+01 9.999996856E-01 1.878380645E-08 4.012433575E-02
3.100000000E+01 9.999996876E-01 1.856287404E-08 3.999490241E-02
3.110000000E+01 9.999996896E-01 1.834502881E-08 3.986630143E-02
3.120000000E+01 9.999996915E-01 1.813560254E-08 3.973852483E-02
3.130000000E+01 9.999996935E-01 1.801990522E-08 3.961156468E-02
3.140000000E+01 9.999996954E-01 1.790531151E-08 3.948541320E-02
3.150000000E+01 9.999996974E-01 1.779180745E-08 3.936006269E-02
3.160000000E+01 9.999996993E-01 1.767937925E-08 3.923550552E-02
3.170000000E+01 9.999997012E-01 1.756801336E-08 3.911173421E-02
