# 04/03/2022 
# Density retrieved from www.chemicool.com/densities.html 
# Includes the real (n) and complex (k) part of the  refractive index. 
# Element, H  (Z = 1) 
# Nominal density, g cm-3 =  8.99e-05 
#    E [keV]      n       k    Wavelength [nm] 
1.000000000E+00 9.999999629E-01 6.559206534E-12 1.239841975E+00
1.100000000E+00 9.999999694E-01 4.279868233E-12 1.127129068E+00
1.200000000E+00 9.999999743E-01 2.985361391E-12 1.033201645E+00
1.300000000E+00 9.999999781E-01 2.077999599E-12 9.537245958E-01
1.400000000E+00 9.999999811E-01 1.488402806E-12 8.856014104E-01
1.500000000E+00 9.999999835E-01 1.058094897E-12 8.265613164E-01
1.600000000E+00 9.999999855E-01 7.829289405E-13 7.749012341E-01
1.700000000E+00 9.999999872E-01 6.598187549E-13 7.293188086E-01
1.800000000E+00 9.999999886E-01 4.666486710E-13 6.888010970E-01
1.900000000E+00 9.999999897E-01 3.696492391E-13 6.525484077E-01
2.000000000E+00 9.999999907E-01 2.982432035E-13 6.199209873E-01
2.100000000E+00 9.999999916E-01 2.384756184E-13 5.904009403E-01
2.200000000E+00 9.999999923E-01 1.953445750E-13 5.635645339E-01
2.300000000E+00 9.999999930E-01 1.597890415E-13 5.390617281E-01
2.400000000E+00 9.999999936E-01 1.344200765E-13 5.166008227E-01
2.500000000E+00 9.999999941E-01 1.107644422E-13 4.959367898E-01
2.600000000E+00 9.999999945E-01 9.356018936E-14 4.768622979E-01
2.700000000E+00 9.999999949E-01 7.894264503E-14 4.592007313E-01
2.800000000E+00 9.999999953E-01 6.711930810E-14 4.428007052E-01
2.900000000E+00 9.999999956E-01 6.240624249E-14 4.275317154E-01
3.000000000E+00 9.999999959E-01 4.963632550E-14 4.132806582E-01
3.100000000E+00 9.999999961E-01 4.490836897E-14 3.999490241E-01
3.200000000E+00 9.999999964E-01 3.739518167E-14 3.874506171E-01
3.300000000E+00 9.999999966E-01 3.275273769E-14 3.757096893E-01
3.400000000E+00 9.999999968E-01 2.860429079E-14 3.646594043E-01
3.500000000E+00 9.999999970E-01 2.513332045E-14 3.542405642E-01
3.600000000E+00 9.999999971E-01 2.351187594E-14 3.444005485E-01
3.700000000E+00 9.999999973E-01 1.969670391E-14 3.350924256E-01
3.800000000E+00 9.999999974E-01 1.766958718E-14 3.262742038E-01
3.900000000E+00 9.999999976E-01 1.560742766E-14 3.179081986E-01
4.000000000E+00 9.999999977E-01 1.394265609E-14 3.099604936E-01
4.100000000E+00 9.999999978E-01 1.307821977E-14 3.024004816E-01
4.200000000E+00 9.999999979E-01 1.124965023E-14 2.952004701E-01
4.300000000E+00 9.999999980E-01 1.032597046E-14 2.883353429E-01
4.400000000E+00 9.999999981E-01 9.155847926E-15 2.817822670E-01
4.500000000E+00 9.999999982E-01 8.549330891E-15 2.755204388E-01
4.600000000E+00 9.999999983E-01 7.524616847E-15 2.695308640E-01
4.700000000E+00 9.999999983E-01 6.840591007E-15 2.637961648E-01
4.800000000E+00 9.999999984E-01 6.234020848E-15 2.583004114E-01
4.900000000E+00 9.999999985E-01 5.690358202E-15 2.530289744E-01
5.000000000E+00 9.999999985E-01 5.206400381E-15 2.479683949E-01
5.100000000E+00 9.999999986E-01 4.770814132E-15 2.431062695E-01
5.200000000E+00 9.999999986E-01 4.377917660E-15 2.384311490E-01
5.300000000E+00 9.999999987E-01 4.179513685E-15 2.339324480E-01
5.400000000E+00 9.999999987E-01 3.706246896E-15 2.296003657E-01
5.500000000E+00 9.999999988E-01 3.552802298E-15 2.254258136E-01
5.600000000E+00 9.999999988E-01 3.156703850E-15 2.214003526E-01
5.700000000E+00 9.999999989E-01 2.970874709E-15 2.175161359E-01
5.800000000E+00 9.999999989E-01 2.869313891E-15 2.137658577E-01
5.900000000E+00 9.999999989E-01 2.506766542E-15 2.101427076E-01
6.000000000E+00 9.999999990E-01 2.323981811E-15 2.066403291E-01
6.100000000E+00 9.999999990E-01 2.247257218E-15 2.032527827E-01
6.200000000E+00 9.999999990E-01 2.175349664E-15 1.999745120E-01
6.300000000E+00 9.999999991E-01 1.876975534E-15 1.968003134E-01
6.400000000E+00 9.999999991E-01 1.748876426E-15 1.937253085E-01
6.500000000E+00 9.999999991E-01 1.641053806E-15 1.907449192E-01
6.600000000E+00 9.999999991E-01 1.591701637E-15 1.878548446E-01
6.700000000E+00 9.999999992E-01 1.544542734E-15 1.850510410E-01
6.800000000E+00 9.999999992E-01 1.338534287E-15 1.823297021E-01
6.900000000E+00 9.999999992E-01 1.253750975E-15 1.796872427E-01
7.000000000E+00 9.999999992E-01 1.174515876E-15 1.771202821E-01
7.100000000E+00 9.999999993E-01 1.139674798E-15 1.746256302E-01
7.200000000E+00 9.999999993E-01 1.108237010E-15 1.722002742E-01
7.300000000E+00 9.999999993E-01 9.781538432E-16 1.698413664E-01
7.400000000E+00 9.999999993E-01 9.207175022E-16 1.675462128E-01
7.500000000E+00 9.999999993E-01 8.667856228E-16 1.653122633E-01
7.600000000E+00 9.999999994E-01 8.161119061E-16 1.631371019E-01
7.700000000E+00 9.999999994E-01 7.899990604E-16 1.610184383E-01
7.800000000E+00 9.999999994E-01 7.698725229E-16 1.589540993E-01
7.900000000E+00 9.999999994E-01 7.505054365E-16 1.569420221E-01
8.000000000E+00 9.999999994E-01 6.516735281E-16 1.549802468E-01
8.100000000E+00 9.999999994E-01 6.163816047E-16 1.530669104E-01
8.200000000E+00 9.999999994E-01 5.830662397E-16 1.512002408E-01
8.300000000E+00 9.999999995E-01 5.637676411E-16 1.493785512E-01
8.400000000E+00 9.999999995E-01 5.504245010E-16 1.476002351E-01
8.500000000E+00 9.999999995E-01 5.375495196E-16 1.458637617E-01
8.600000000E+00 9.999999995E-01 5.251210491E-16 1.441676715E-01
8.700000000E+00 9.999999995E-01 4.501127021E-16 1.425105718E-01
8.800000000E+00 9.999999995E-01 4.276810669E-16 1.408911335E-01
8.900000000E+00 9.999999995E-01 4.064076283E-16 1.393080870E-01
9.000000000E+00 9.999999995E-01 3.862234385E-16 1.377602194E-01
9.100000000E+00 9.999999996E-01 3.693733660E-16 1.362463708E-01
9.200000000E+00 9.999999996E-01 3.613871507E-16 1.347654320E-01
9.300000000E+00 9.999999996E-01 3.536571677E-16 1.333163414E-01
9.400000000E+00 9.999999996E-01 3.461725717E-16 1.318980824E-01
9.500000000E+00 9.999999996E-01 3.043960041E-16 1.305096815E-01
9.600000000E+00 9.999999996E-01 2.905058804E-16 1.291502057E-01
9.700000000E+00 9.999999996E-01 2.772740041E-16 1.278187603E-01
9.800000000E+00 9.999999996E-01 2.646643657E-16 1.265144872E-01
9.900000000E+00 9.999999996E-01 2.526432268E-16 1.252365631E-01
1.000000000E+01 9.999999996E-01 2.453063263E-16 1.239841975E-01
1.010000000E+01 9.999999996E-01 2.404728225E-16 1.227566311E-01
1.020000000E+01 9.999999996E-01 2.357807826E-16 1.215531348E-01
1.030000000E+01 9.999999997E-01 2.312247396E-16 1.203730072E-01
1.040000000E+01 9.999999997E-01 2.034959249E-16 1.192155745E-01
1.050000000E+01 9.999999997E-01 1.949795306E-16 1.180801881E-01
1.060000000E+01 9.999999997E-01 1.868330217E-16 1.169662240E-01
1.070000000E+01 9.999999997E-01 1.790378437E-16 1.158730817E-01
1.080000000E+01 9.999999997E-01 1.715765161E-16 1.148001828E-01
1.090000000E+01 9.999999997E-01 1.681408036E-16 1.137469701E-01
1.100000000E+01 9.999999997E-01 1.650975941E-16 1.127129068E-01
1.110000000E+01 9.999999997E-01 1.621362623E-16 1.116974752E-01
1.120000000E+01 9.999999997E-01 1.592538973E-16 1.107001763E-01
1.130000000E+01 9.999999997E-01 1.406527704E-16 1.097205287E-01
1.140000000E+01 9.999999997E-01 1.352089126E-16 1.087580679E-01
1.150000000E+01 9.999999997E-01 1.299833622E-16 1.078123456E-01
1.160000000E+01 9.999999997E-01 1.249660059E-16 1.068829288E-01
1.170000000E+01 9.999999997E-01 1.210735116E-16 1.059693995E-01
1.180000000E+01 9.999999997E-01 1.190301135E-16 1.050713538E-01
1.190000000E+01 9.999999997E-01 1.170380129E-16 1.041884012E-01
1.200000000E+01 9.999999997E-01 1.150955070E-16 1.033201645E-01
1.210000000E+01 9.999999997E-01 1.132009631E-16 1.024662789E-01
1.220000000E+01 9.999999998E-01 1.001002152E-16 1.016263914E-01
1.230000000E+01 9.999999998E-01 9.651526678E-17 1.008001605E-01
1.240000000E+01 9.999999998E-01 9.306364254E-17 9.998725601E-02
1.250000000E+01 9.999999998E-01 8.973960901E-17 9.918735797E-02
1.260000000E+01 9.999999998E-01 8.653771756E-17 9.840015671E-02
1.270000000E+01 9.999999998E-01 8.391774682E-17 9.762535233E-02
1.280000000E+01 9.999999998E-01 8.261165396E-17 9.686265426E-02
1.290000000E+01 9.999999998E-01 8.133581747E-17 9.611178098E-02
1.300000000E+01 9.999999998E-01 8.008930997E-17 9.537245958E-02
1.310000000E+01 9.999999998E-01 7.887123935E-17 9.464442554E-02
1.320000000E+01 9.999999998E-01 7.768074716E-17 9.392742232E-02
1.330000000E+01 9.999999998E-01 6.820784358E-17 9.322120110E-02
1.340000000E+01 9.999999998E-01 6.595907087E-17 9.252552049E-02
1.350000000E+01 9.999999998E-01 6.378721618E-17 9.184014627E-02
1.360000000E+01 9.999999998E-01 6.168923637E-17 9.116485107E-02
1.370000000E+01 9.999999998E-01 5.966222744E-17 9.049941420E-02
1.380000000E+01 9.999999998E-01 5.789465537E-17 8.984362135E-02
1.390000000E+01 9.999999998E-01 5.706463521E-17 8.919726436E-02
1.400000000E+01 9.999999998E-01 5.625233760E-17 8.856014104E-02
1.410000000E+01 9.999999998E-01 5.545726155E-17 8.793205493E-02
1.420000000E+01 9.999999998E-01 5.467892367E-17 8.731281511E-02
1.430000000E+01 9.999999998E-01 5.391685740E-17 8.670223598E-02
1.440000000E+01 9.999999998E-01 4.789417710E-17 8.610013712E-02
1.450000000E+01 9.999999998E-01 4.643485390E-17 8.550634307E-02
1.460000000E+01 9.999999998E-01 4.502170419E-17 8.492068319E-02
1.470000000E+01 9.999999998E-01 4.365303709E-17 8.434299147E-02
1.480000000E+01 9.999999998E-01 4.232723330E-17 8.377310639E-02
1.490000000E+01 9.999999998E-01 4.110481648E-17 8.321087078E-02
1.500000000E+01 9.999999998E-01 4.055857914E-17 8.265613164E-02
1.510000000E+01 9.999999998E-01 4.002315823E-17 8.210874004E-02
1.520000000E+01 9.999999998E-01 3.949827003E-17 8.156855096E-02
1.530000000E+01 9.999999998E-01 3.898364008E-17 8.103542318E-02
1.540000000E+01 9.999999998E-01 3.847900281E-17 8.050921913E-02
1.550000000E+01 9.999999998E-01 3.798410117E-17 7.998980481E-02
1.560000000E+01 9.999999998E-01 3.749868634E-17 7.947704965E-02
1.570000000E+01 9.999999998E-01 3.267232757E-17 7.897082641E-02
1.580000000E+01 9.999999999E-01 3.175947074E-17 7.847101105E-02
1.590000000E+01 9.999999999E-01 3.087313971E-17 7.797748268E-02
1.600000000E+01 9.999999999E-01 3.001244169E-17 7.749012341E-02
1.610000000E+01 9.999999999E-01 2.917651866E-17 7.700881830E-02
1.620000000E+01 9.999999999E-01 2.836454583E-17 7.653345522E-02
1.630000000E+01 9.999999999E-01 2.757573015E-17 7.606392482E-02
1.640000000E+01 9.999999999E-01 2.680930894E-17 7.560012040E-02
1.650000000E+01 9.999999999E-01 2.642799184E-17 7.514193785E-02
1.660000000E+01 9.999999999E-01 2.611054137E-17 7.468927558E-02
1.670000000E+01 9.999999999E-01 2.579877651E-17 7.424203441E-02
1.680000000E+01 9.999999999E-01 2.549256229E-17 7.380011753E-02
1.690000000E+01 9.999999999E-01 2.519176772E-17 7.336343045E-02
1.700000000E+01 9.999999999E-01 2.489626567E-17 7.293188086E-02
1.710000000E+01 9.999999999E-01 2.460593270E-17 7.250537863E-02
1.720000000E+01 9.999999999E-01 2.175483958E-17 7.208383573E-02
1.730000000E+01 9.999999999E-01 2.119809626E-17 7.166716616E-02
1.740000000E+01 9.999999999E-01 2.065615434E-17 7.125528590E-02
1.750000000E+01 9.999999999E-01 2.012855795E-17 7.084811283E-02
1.760000000E+01 9.999999999E-01 1.961486747E-17 7.044556674E-02
1.770000000E+01 9.999999999E-01 1.911465887E-17 7.004756919E-02
1.780000000E+01 9.999999999E-01 1.862752308E-17 6.965404352E-02
1.790000000E+01 9.999999999E-01 1.821683772E-17 6.926491478E-02
1.800000000E+01 9.999999999E-01 1.801499066E-17 6.888010970E-02
1.810000000E+01 9.999999999E-01 1.781647988E-17 6.849955661E-02
1.820000000E+01 9.999999999E-01 1.762123226E-17 6.812318542E-02
1.830000000E+01 9.999999999E-01 1.742917667E-17 6.775092757E-02
1.840000000E+01 9.999999999E-01 1.724024390E-17 6.738271601E-02
1.850000000E+01 9.999999999E-01 1.705436662E-17 6.701848511E-02
1.860000000E+01 9.999999999E-01 1.687147929E-17 6.665817068E-02
1.870000000E+01 9.999999999E-01 1.500127819E-17 6.630170987E-02
1.880000000E+01 9.999999999E-01 1.464913824E-17 6.594904120E-02
1.890000000E+01 9.999999999E-01 1.430561188E-17 6.560010448E-02
1.900000000E+01 9.999999999E-01 1.397045478E-17 6.525484077E-02
1.910000000E+01 9.999999999E-01 1.364343064E-17 6.491319239E-02
1.920000000E+01 9.999999999E-01 1.332431087E-17 6.457510284E-02
1.930000000E+01 9.999999999E-01 1.301287434E-17 6.424051682E-02
1.940000000E+01 9.999999999E-01 1.270890707E-17 6.390938013E-02
1.950000000E+01 9.999999999E-01 1.241220197E-17 6.358163972E-02
1.960000000E+01 9.999999999E-01 1.212255860E-17 6.325724360E-02
1.970000000E+01 9.999999999E-01 1.199631987E-17 6.293614084E-02
1.980000000E+01 9.999999999E-01 1.187545092E-17 6.261828154E-02
1.990000000E+01 9.999999999E-01 1.175639953E-17 6.230361681E-02
2.000000000E+01 9.999999999E-01 1.163912945E-17 6.199209873E-02
2.010000000E+01 9.999999999E-01 1.152360530E-17 6.168368033E-02
2.020000000E+01 9.999999999E-01 1.140979261E-17 6.137831557E-02
2.030000000E+01 9.999999999E-01 1.129765774E-17 6.107595934E-02
2.040000000E+01 9.999999999E-01 1.118716786E-17 6.077656738E-02
2.050000000E+01 9.999999999E-01 9.959878499E-18 6.048009632E-02
2.060000000E+01 9.999999999E-01 9.746029740E-18 6.018650362E-02
2.070000000E+01 9.999999999E-01 9.536961688E-18 5.989574756E-02
2.080000000E+01 9.999999999E-01 9.332550383E-18 5.960778724E-02
2.090000000E+01 9.999999999E-01 9.132675588E-18 5.932258252E-02
2.100000000E+01 9.999999999E-01 8.937220662E-18 5.904009403E-02
2.110000000E+01 9.999999999E-01 8.746072438E-18 5.876028316E-02
2.120000000E+01 9.999999999E-01 8.559121106E-18 5.848311201E-02
2.130000000E+01 9.999999999E-01 8.376260095E-18 5.820854341E-02
2.140000000E+01 9.999999999E-01 8.239371572E-18 5.793654087E-02
2.150000000E+01 9.999999999E-01 8.162904500E-18 5.766706859E-02
2.160000000E+01 9.999999999E-01 8.087497010E-18 5.740009142E-02
2.170000000E+01 9.999999999E-01 8.013129616E-18 5.713557487E-02
2.180000000E+01 9.999999999E-01 7.939783278E-18 5.687348507E-02
2.190000000E+01 9.999999999E-01 7.867439388E-18 5.661378879E-02
2.200000000E+01 9.999999999E-01 7.796079763E-18 5.635645339E-02
2.210000000E+01 9.999999999E-01 7.725686626E-18 5.610144681E-02
2.220000000E+01 9.999999999E-01 7.656242604E-18 5.584873759E-02
2.230000000E+01 9.999999999E-01 7.587730711E-18 5.559829482E-02
2.240000000E+01 9.999999999E-01 6.718321534E-18 5.535008815E-02
2.250000000E+01 9.999999999E-01 6.586323609E-18 5.510408776E-02
2.260000000E+01 9.999999999E-01 6.457028848E-18 5.486026436E-02
2.270000000E+01 9.999999999E-01 6.330373008E-18 5.461858919E-02
2.280000000E+01 9.999999999E-01 6.206293618E-18 5.437903397E-02
2.290000000E+01 9.999999999E-01 6.084729917E-18 5.414157094E-02
2.300000000E+01 9.999999999E-01 5.965622809E-18 5.390617281E-02
2.310000000E+01 9.999999999E-01 5.848914803E-18 5.367281275E-02
2.320000000E+01 9.999999999E-01 5.734549969E-18 5.344146442E-02
2.330000000E+01 9.999999999E-01 5.622473884E-18 5.321210191E-02
2.340000000E+01 9.999999999E-01 5.512633592E-18 5.298469977E-02
2.350000000E+01 9.999999999E-01 5.407282754E-18 5.275923296E-02
2.360000000E+01 9.999999999E-01 5.361555410E-18 5.253567689E-02
2.370000000E+01 9.999999999E-01 5.316405671E-18 5.231400737E-02
2.380000000E+01 9.999999999E-01 5.271823849E-18 5.209420061E-02
2.390000000E+01 9.999999999E-01 5.227800461E-18 5.187623325E-02
2.400000000E+01 9.999999999E-01 5.184326217E-18 5.166008227E-02
2.410000000E+01 9.999999999E-01 5.141392023E-18 5.144572509E-02
2.420000000E+01 9.999999999E-01 5.098988971E-18 5.123313945E-02
2.430000000E+01 9.999999999E-01 5.057108336E-18 5.102230348E-02
2.440000000E+01 9.999999999E-01 5.015741570E-18 5.081319568E-02
2.450000000E+01 9.999999999E-01 4.974880302E-18 5.060579488E-02
2.460000000E+01 9.999999999E-01 4.934516328E-18 5.040008027E-02
2.470000000E+01 9.999999999E-01 4.348896622E-18 5.019603136E-02
2.480000000E+01 9.999999999E-01 4.271289641E-18 4.999362801E-02
2.490000000E+01 9.999999999E-01 4.195126043E-18 4.979285038E-02
2.500000000E+01 9.999999999E-01 4.120374666E-18 4.959367898E-02
2.510000000E+01 9.999999999E-01 4.047005126E-18 4.939609460E-02
2.520000000E+01 9.999999999E-01 3.974987801E-18 4.920007836E-02
2.530000000E+01 9.999999999E-01 3.904293800E-18 4.900561164E-02
2.540000000E+01 9.999999999E-01 3.834894952E-18 4.881267616E-02
2.550000000E+01 9.999999999E-01 3.766763777E-18 4.862125391E-02
2.560000000E+01 9.999999999E-01 3.699873473E-18 4.843132713E-02
2.570000000E+01 9.999999999E-01 3.634197895E-18 4.824287839E-02
2.580000000E+01 9.999999999E-01 3.569711534E-18 4.805589049E-02
2.590000000E+01 9.999999999E-01 3.506389502E-18 4.787034651E-02
2.600000000E+01 9.999999999E-01 3.475726581E-18 4.768622979E-02
2.610000000E+01 9.999999999E-01 3.449143683E-18 4.750352393E-02
2.620000000E+01 9.999999999E-01 3.422864589E-18 4.732221277E-02
2.630000000E+01 9.999999999E-01 3.396884686E-18 4.714228040E-02
2.640000000E+01 9.999999999E-01 3.371199450E-18 4.696371116E-02
2.650000000E+01 9.999999999E-01 3.345804441E-18 4.678648961E-02
2.660000000E+01 9.999999999E-01 3.320695303E-18 4.661060055E-02
2.670000000E+01 9.999999999E-01 3.295867762E-18 4.643602901E-02
2.680000000E+01 9.999999999E-01 3.271317622E-18 4.626276025E-02
2.690000000E+01 9.999999999E-01 3.247040766E-18 4.609077972E-02
2.700000000E+01 9.999999999E-01 2.922281341E-18 4.592007313E-02
2.710000000E+01 9.999999999E-01 2.874554043E-18 4.575062637E-02
2.720000000E+01 9.999999999E-01 2.827639566E-18 4.558242554E-02
2.730000000E+01 1.000000000E+00 2.781521833E-18 4.541545694E-02
2.740000000E+01 1.000000000E+00 2.736185140E-18 4.524970710E-02
2.750000000E+01 1.000000000E+00 2.691614137E-18 4.508516271E-02
2.760000000E+01 1.000000000E+00 2.647793829E-18 4.492181067E-02
2.770000000E+01 1.000000000E+00 2.604709557E-18 4.475963807E-02
2.780000000E+01 1.000000000E+00 2.562346997E-18 4.459863218E-02
2.790000000E+01 1.000000000E+00 2.520692146E-18 4.443878045E-02
2.800000000E+01 1.000000000E+00 2.479731318E-18 4.428007052E-02
2.810000000E+01 1.000000000E+00 2.439451131E-18 4.412249020E-02
2.820000000E+01 1.000000000E+00 2.413749665E-18 4.396602747E-02
2.830000000E+01 1.000000000E+00 2.396721502E-18 4.381067048E-02
2.840000000E+01 1.000000000E+00 2.379872897E-18 4.365640756E-02
2.850000000E+01 1.000000000E+00 2.363201334E-18 4.350322718E-02
2.860000000E+01 1.000000000E+00 2.346704342E-18 4.335111799E-02
2.870000000E+01 1.000000000E+00 2.330379492E-18 4.320006880E-02
2.880000000E+01 1.000000000E+00 2.314224397E-18 4.305006856E-02
2.890000000E+01 1.000000000E+00 2.298236711E-18 4.290110639E-02
2.900000000E+01 1.000000000E+00 2.282414130E-18 4.275317154E-02
2.910000000E+01 1.000000000E+00 2.266754388E-18 4.260625342E-02
2.920000000E+01 1.000000000E+00 2.251255258E-18 4.246034160E-02
2.930000000E+01 1.000000000E+00 2.235914552E-18 4.231542575E-02
2.940000000E+01 1.000000000E+00 2.000678763E-18 4.217149573E-02
2.950000000E+01 1.000000000E+00 1.970623473E-18 4.202854151E-02
2.960000000E+01 1.000000000E+00 1.941038812E-18 4.188655320E-02
2.970000000E+01 1.000000000E+00 1.911916219E-18 4.174552103E-02
2.980000000E+01 1.000000000E+00 1.883247316E-18 4.160543539E-02
2.990000000E+01 1.000000000E+00 1.855023901E-18 4.146628678E-02
3.000000000E+01 1.000000000E+00 1.827237944E-18 4.132806582E-02
3.010000000E+01 1.000000000E+00 1.799881582E-18 4.119076328E-02
3.020000000E+01 1.000000000E+00 1.772947116E-18 4.105437002E-02
3.030000000E+01 1.000000000E+00 1.746427009E-18 4.091887705E-02
3.040000000E+01 1.000000000E+00 1.720313876E-18 4.078427548E-02
3.050000000E+01 1.000000000E+00 1.694600489E-18 4.065055654E-02
3.060000000E+01 1.000000000E+00 1.669279767E-18 4.051771159E-02
3.070000000E+01 1.000000000E+00 1.653930726E-18 4.038573207E-02
3.080000000E+01 1.000000000E+00 1.643208350E-18 4.025460956E-02
3.090000000E+01 1.000000000E+00 1.632589907E-18 4.012433575E-02
3.100000000E+01 1.000000000E+00 1.622074058E-18 3.999490241E-02
3.110000000E+01 1.000000000E+00 1.611659484E-18 3.986630143E-02
3.120000000E+01 1.000000000E+00 1.601344890E-18 3.973852483E-02
3.130000000E+01 1.000000000E+00 1.591128999E-18 3.961156468E-02
3.140000000E+01 1.000000000E+00 1.581010558E-18 3.948541320E-02
3.150000000E+01 1.000000000E+00 1.570988329E-18 3.936006269E-02
3.160000000E+01 1.000000000E+00 1.561061097E-18 3.923550552E-02
3.170000000E+01 1.000000000E+00 1.551227666E-18 3.911173421E-02
