# 04/03/2022 
# Density retrieved from www.chemicool.com/densities.html 
# Includes the real (n) and complex (k) part of the  refractive index. 
# Element, He  (Z = 2) 
# Nominal density, g cm-3 =  0.0001787 
#    E [keV]      n       k    Wavelength [nm] 
1.000000000E+00 9.999999627E-01 1.074816581E-10 1.239841975E+00
1.100000000E+00 9.999999692E-01 7.191245091E-11 1.127129068E+00
1.200000000E+00 9.999999741E-01 4.997298884E-11 1.033201645E+00
1.300000000E+00 9.999999780E-01 3.976372791E-11 9.537245958E-01
1.400000000E+00 9.999999810E-01 2.717464813E-11 8.856014104E-01
1.500000000E+00 9.999999835E-01 1.947112788E-11 8.265613164E-01
1.600000000E+00 9.999999855E-01 1.483987414E-11 7.749012341E-01
1.700000000E+00 9.999999871E-01 1.172993854E-11 7.293188086E-01
1.800000000E+00 9.999999885E-01 8.993356658E-12 6.888010970E-01
1.900000000E+00 9.999999897E-01 7.471118041E-12 6.525484077E-01
2.000000000E+00 9.999999907E-01 5.725905255E-12 6.199209873E-01
2.100000000E+00 9.999999916E-01 4.796599190E-12 5.904009403E-01
2.200000000E+00 9.999999923E-01 3.797166057E-12 5.635645339E-01
2.300000000E+00 9.999999930E-01 3.163947472E-12 5.390617281E-01
2.400000000E+00 9.999999936E-01 2.905778147E-12 5.166008227E-01
2.500000000E+00 9.999999941E-01 2.181736873E-12 4.959367898E-01
2.600000000E+00 9.999999945E-01 1.960258886E-12 4.768622979E-01
2.700000000E+00 9.999999949E-01 1.563493812E-12 4.592007313E-01
2.800000000E+00 9.999999953E-01 1.390865550E-12 4.428007052E-01
2.900000000E+00 9.999999956E-01 1.149287628E-12 4.275317154E-01
3.000000000E+00 9.999999959E-01 9.901581760E-13 4.132806582E-01
3.100000000E+00 9.999999961E-01 8.921524680E-13 3.999490241E-01
3.200000000E+00 9.999999964E-01 8.372641814E-13 3.874506171E-01
3.300000000E+00 9.999999966E-01 6.551862998E-13 3.757096893E-01
3.400000000E+00 9.999999968E-01 5.859517484E-13 3.646594043E-01
3.500000000E+00 9.999999970E-01 5.529471193E-13 3.542405642E-01
3.600000000E+00 9.999999971E-01 4.497369651E-13 3.444005485E-01
3.700000000E+00 9.999999973E-01 3.983846036E-13 3.350924256E-01
3.800000000E+00 9.999999974E-01 3.692620528E-13 3.262742038E-01
3.900000000E+00 9.999999976E-01 3.175707743E-13 3.179081986E-01
4.000000000E+00 9.999999977E-01 2.842844153E-13 3.099604936E-01
4.100000000E+00 9.999999978E-01 2.586394984E-13 3.024004816E-01
4.200000000E+00 9.999999979E-01 2.464699528E-13 2.952004701E-01
4.300000000E+00 9.999999980E-01 2.081296203E-13 2.883353429E-01
4.400000000E+00 9.999999981E-01 1.881845164E-13 2.817822670E-01
4.500000000E+00 9.999999982E-01 1.702371245E-13 2.755204388E-01
4.600000000E+00 9.999999982E-01 1.618131353E-13 2.695308640E-01
4.700000000E+00 9.999999983E-01 1.550007218E-13 2.637961648E-01
4.800000000E+00 9.999999984E-01 1.289559994E-13 2.583004114E-01
4.900000000E+00 9.999999985E-01 1.177115063E-13 2.530289744E-01
5.000000000E+00 9.999999985E-01 1.081372595E-13 2.479683949E-01
5.100000000E+00 9.999999986E-01 1.039381579E-13 2.431062695E-01
5.200000000E+00 9.999999986E-01 9.088675189E-14 2.384311490E-01
5.300000000E+00 9.999999987E-01 8.360228403E-14 2.339324480E-01
5.400000000E+00 9.999999987E-01 7.692875876E-14 2.296003657E-01
5.500000000E+00 9.999999988E-01 7.356157773E-14 2.254258136E-01
5.600000000E+00 9.999999988E-01 7.095783567E-14 2.214003526E-01
5.700000000E+00 9.999999989E-01 6.092001791E-14 2.175161359E-01
5.800000000E+00 9.999999989E-01 5.642007124E-14 2.137658577E-01
5.900000000E+00 9.999999989E-01 5.245034041E-14 2.101427076E-01
6.000000000E+00 9.999999990E-01 5.071656526E-14 2.066403291E-01
6.100000000E+00 9.999999990E-01 4.906735688E-14 2.032527827E-01
6.200000000E+00 9.999999990E-01 4.218621349E-14 1.999745120E-01
6.300000000E+00 9.999999991E-01 3.929707157E-14 1.968003134E-01
6.400000000E+00 9.999999991E-01 3.702617948E-14 1.937253085E-01
6.500000000E+00 9.999999991E-01 3.589567601E-14 1.907449192E-01
6.600000000E+00 9.999999991E-01 3.481616877E-14 1.878548446E-01
6.700000000E+00 9.999999992E-01 3.002027571E-14 1.850510410E-01
6.800000000E+00 9.999999992E-01 2.810136661E-14 1.823297021E-01
6.900000000E+00 9.999999992E-01 2.670744890E-14 1.796872427E-01
7.000000000E+00 9.999999992E-01 2.594982943E-14 1.771202821E-01
7.100000000E+00 9.999999993E-01 2.326681453E-14 1.746256302E-01
7.200000000E+00 9.999999993E-01 2.187210786E-14 1.722002742E-01
7.300000000E+00 9.999999993E-01 2.056463387E-14 1.698413664E-01
7.400000000E+00 9.999999993E-01 1.996656584E-14 1.675462128E-01
7.500000000E+00 9.999999993E-01 1.943767370E-14 1.653122633E-01
7.600000000E+00 9.999999994E-01 1.725570227E-14 1.631371019E-01
7.700000000E+00 9.999999994E-01 1.628278166E-14 1.610184383E-01
7.800000000E+00 9.999999994E-01 1.552555029E-14 1.589540993E-01
7.900000000E+00 9.999999994E-01 1.513498606E-14 1.569420221E-01
8.000000000E+00 9.999999994E-01 1.377745413E-14 1.549802468E-01
8.100000000E+00 9.999999994E-01 1.304348623E-14 1.530669104E-01
8.200000000E+00 9.999999994E-01 1.235042696E-14 1.512002408E-01
8.300000000E+00 9.999999995E-01 1.192564870E-14 1.493785512E-01
8.400000000E+00 9.999999995E-01 1.164339483E-14 1.476002351E-01
8.500000000E+00 9.999999995E-01 1.055852301E-14 1.458637617E-01
8.600000000E+00 9.999999995E-01 1.002686658E-14 1.441676715E-01
8.700000000E+00 9.999999995E-01 9.523182659E-15 1.425105718E-01
8.800000000E+00 9.999999995E-01 9.235151275E-15 1.408911335E-01
8.900000000E+00 9.999999995E-01 9.028785693E-15 1.393080870E-01
9.000000000E+00 9.999999995E-01 8.207076082E-15 1.377602194E-01
9.100000000E+00 9.999999996E-01 7.813462895E-15 1.362463708E-01
9.200000000E+00 9.999999996E-01 7.559036595E-15 1.347654320E-01
9.300000000E+00 9.999999996E-01 7.397350647E-15 1.333163414E-01
9.400000000E+00 9.999999996E-01 6.774077375E-15 1.318980824E-01
9.500000000E+00 9.999999996E-01 6.462165894E-15 1.305096815E-01
9.600000000E+00 9.999999996E-01 6.295267499E-15 1.291502057E-01
9.700000000E+00 9.999999996E-01 5.897431412E-15 1.278187603E-01
9.800000000E+00 9.999999996E-01 5.635576223E-15 1.265144872E-01
9.900000000E+00 9.999999996E-01 5.415821997E-15 1.252365631E-01
1.000000000E+01 9.999999996E-01 5.154137475E-15 1.239841975E-01
1.010000000E+01 9.999999996E-01 4.992548645E-15 1.227566311E-01
1.020000000E+01 9.999999996E-01 4.724015552E-15 1.215531348E-01
1.030000000E+01 9.999999997E-01 4.553194085E-15 1.203730072E-01
1.040000000E+01 9.999999997E-01 4.336403671E-15 1.192155745E-01
1.050000000E+01 9.999999997E-01 4.168827175E-15 1.180801881E-01
1.060000000E+01 9.999999997E-01 3.986833966E-15 1.169662240E-01
1.070000000E+01 9.999999997E-01 3.831555956E-15 1.158730817E-01
1.080000000E+01 9.999999997E-01 3.760929710E-15 1.148001828E-01
1.090000000E+01 9.999999997E-01 3.526614654E-15 1.137469701E-01
1.100000000E+01 9.999999997E-01 3.386877991E-15 1.127129068E-01
1.110000000E+01 9.999999997E-01 3.271848842E-15 1.116974752E-01
1.120000000E+01 9.999999997E-01 3.213683800E-15 1.107001763E-01
1.130000000E+01 9.999999997E-01 3.157056119E-15 1.097205287E-01
1.140000000E+01 9.999999997E-01 2.894834577E-15 1.087580679E-01
1.150000000E+01 9.999999997E-01 2.784604759E-15 1.078123456E-01
1.160000000E+01 9.999999997E-01 2.689012534E-15 1.068829288E-01
1.170000000E+01 9.999999997E-01 2.643242944E-15 1.059693995E-01
1.180000000E+01 9.999999997E-01 2.598632050E-15 1.050713538E-01
1.190000000E+01 9.999999997E-01 2.396839570E-15 1.041884012E-01
1.200000000E+01 9.999999997E-01 2.309780451E-15 1.033201645E-01
1.210000000E+01 9.999999997E-01 2.226028607E-15 1.024662789E-01
1.220000000E+01 9.999999998E-01 2.145438556E-15 1.016263914E-01
1.230000000E+01 9.999999998E-01 2.101466217E-15 1.008001605E-01
1.240000000E+01 9.999999998E-01 2.067708272E-15 9.998725601E-02
1.250000000E+01 9.999999998E-01 2.034757273E-15 9.918735797E-02
1.260000000E+01 9.999999998E-01 2.002587704E-15 9.840015671E-02
1.270000000E+01 9.999999998E-01 1.801361501E-15 9.762535233E-02
1.280000000E+01 9.999999998E-01 1.739974002E-15 9.686265426E-02
1.290000000E+01 9.999999998E-01 1.680775204E-15 9.611178098E-02
1.300000000E+01 9.999999998E-01 1.623674703E-15 9.537245958E-02
1.310000000E+01 9.999999998E-01 1.568586417E-15 9.464442554E-02
1.320000000E+01 9.999999998E-01 1.518811661E-15 9.392742232E-02
1.330000000E+01 9.999999998E-01 1.496058249E-15 9.322120110E-02
1.340000000E+01 9.999999998E-01 1.473812340E-15 9.252552049E-02
1.350000000E+01 9.999999998E-01 1.452058951E-15 9.184014627E-02
1.360000000E+01 9.999999998E-01 1.430783649E-15 9.116485107E-02
1.370000000E+01 9.999999998E-01 1.409972528E-15 9.049941420E-02
1.380000000E+01 9.999999998E-01 1.249287616E-15 8.984362135E-02
1.390000000E+01 9.999999998E-01 1.209918054E-15 8.919726436E-02
1.400000000E+01 9.999999998E-01 1.171844032E-15 8.856014104E-02
1.410000000E+01 9.999999998E-01 1.135016159E-15 8.793205493E-02
1.420000000E+01 9.999999998E-01 1.099387223E-15 8.731281511E-02
1.430000000E+01 9.999999998E-01 1.066932672E-15 8.670223598E-02
1.440000000E+01 9.999999998E-01 1.052165616E-15 8.610013712E-02
1.450000000E+01 9.999999998E-01 1.037703031E-15 8.550634307E-02
1.460000000E+01 9.999999998E-01 1.023536602E-15 8.492068319E-02
1.470000000E+01 9.999999998E-01 1.009658301E-15 8.434299147E-02
1.480000000E+01 9.999999998E-01 9.960603642E-16 8.377310639E-02
1.490000000E+01 9.999999998E-01 8.908394100E-16 8.321087078E-02
1.500000000E+01 9.999999998E-01 8.648549386E-16 8.265613164E-02
1.510000000E+01 9.999999998E-01 8.396632714E-16 8.210874004E-02
1.520000000E+01 9.999999998E-01 8.152363633E-16 8.156855096E-02
1.530000000E+01 9.999999998E-01 7.915473169E-16 8.103542318E-02
1.540000000E+01 9.999999998E-01 7.685703298E-16 8.050921913E-02
1.550000000E+01 9.999999998E-01 7.462806430E-16 7.998980481E-02
1.560000000E+01 9.999999998E-01 7.347350971E-16 7.947704965E-02
1.570000000E+01 9.999999998E-01 7.254052222E-16 7.897082641E-02
1.580000000E+01 9.999999999E-01 7.162519357E-16 7.847101105E-02
1.590000000E+01 9.999999999E-01 7.072708090E-16 7.797748268E-02
1.600000000E+01 9.999999999E-01 6.984575516E-16 7.749012341E-02
1.610000000E+01 9.999999999E-01 6.898080059E-16 7.700881830E-02
1.620000000E+01 9.999999999E-01 6.813181421E-16 7.653345522E-02
1.630000000E+01 9.999999999E-01 5.995301145E-16 7.606392482E-02
1.640000000E+01 9.999999999E-01 5.834785577E-16 7.560012040E-02
1.650000000E+01 9.999999999E-01 5.678758364E-16 7.514193785E-02
1.660000000E+01 9.999999999E-01 5.527073981E-16 7.468927558E-02
1.670000000E+01 9.999999999E-01 5.379592364E-16 7.424203441E-02
1.680000000E+01 9.999999999E-01 5.236178678E-16 7.380011753E-02
1.690000000E+01 9.999999999E-01 5.096703093E-16 7.336343045E-02
1.700000000E+01 9.999999999E-01 4.986833762E-16 7.293188086E-02
1.710000000E+01 9.999999999E-01 4.928678764E-16 7.250537863E-02
1.720000000E+01 9.999999999E-01 4.871535145E-16 7.208383573E-02
1.730000000E+01 9.999999999E-01 4.815379589E-16 7.166716616E-02
1.740000000E+01 9.999999999E-01 4.760189448E-16 7.125528590E-02
1.750000000E+01 9.999999999E-01 4.705942718E-16 7.084811283E-02
1.760000000E+01 9.999999999E-01 4.652618018E-16 7.044556674E-02
1.770000000E+01 9.999999999E-01 4.600194571E-16 7.004756919E-02
1.780000000E+01 9.999999999E-01 4.064813555E-16 6.965404352E-02
1.790000000E+01 9.999999999E-01 3.965157650E-16 6.926491478E-02
1.800000000E+01 9.999999999E-01 3.868056627E-16 6.888010970E-02
1.810000000E+01 9.999999999E-01 3.773434487E-16 6.849955661E-02
1.820000000E+01 9.999999999E-01 3.681217848E-16 6.812318542E-02
1.830000000E+01 9.999999999E-01 3.591335848E-16 6.775092757E-02
1.840000000E+01 9.999999999E-01 3.503720039E-16 6.738271601E-02
1.850000000E+01 9.999999999E-01 3.418304295E-16 6.701848511E-02
1.860000000E+01 9.999999999E-01 3.351598017E-16 6.665817068E-02
1.870000000E+01 9.999999999E-01 3.315847893E-16 6.630170987E-02
1.880000000E+01 9.999999999E-01 3.280666732E-16 6.594904120E-02
1.890000000E+01 9.999999999E-01 3.246042524E-16 6.560010448E-02
1.900000000E+01 9.999999999E-01 3.211963573E-16 6.525484077E-02
1.910000000E+01 9.999999999E-01 3.178418491E-16 6.491319239E-02
1.920000000E+01 9.999999999E-01 3.145396186E-16 6.457510284E-02
1.930000000E+01 9.999999999E-01 3.112885849E-16 6.424051682E-02
1.940000000E+01 9.999999999E-01 3.080876953E-16 6.390938013E-02
1.950000000E+01 9.999999999E-01 2.718735935E-16 6.358163972E-02
1.960000000E+01 9.999999999E-01 2.657936877E-16 6.325724360E-02
1.970000000E+01 9.999999999E-01 2.598561991E-16 6.293614084E-02
1.980000000E+01 9.999999999E-01 2.540572541E-16 6.261828154E-02
1.990000000E+01 9.999999999E-01 2.483931013E-16 6.230361681E-02
2.000000000E+01 9.999999999E-01 2.428601068E-16 6.199209873E-02
2.010000000E+01 9.999999999E-01 2.374547503E-16 6.168368033E-02
2.020000000E+01 9.999999999E-01 2.321736210E-16 6.137831557E-02
2.030000000E+01 9.999999999E-01 2.270134137E-16 6.107595934E-02
2.040000000E+01 9.999999999E-01 2.219709247E-16 6.077656738E-02
2.050000000E+01 9.999999999E-01 2.185122509E-16 6.048009632E-02
2.060000000E+01 9.999999999E-01 2.163959220E-16 6.018650362E-02
2.070000000E+01 9.999999999E-01 2.143101903E-16 5.989574756E-02
2.080000000E+01 9.999999999E-01 2.122544690E-16 5.960778724E-02
2.090000000E+01 9.999999999E-01 2.102281849E-16 5.932258252E-02
2.100000000E+01 9.999999999E-01 2.082307788E-16 5.904009403E-02
2.110000000E+01 9.999999999E-01 2.062617045E-16 5.876028316E-02
2.120000000E+01 9.999999999E-01 2.043204286E-16 5.848311201E-02
2.130000000E+01 9.999999999E-01 1.838172125E-16 5.820854341E-02
2.140000000E+01 9.999999999E-01 1.800410201E-16 5.793654087E-02
2.150000000E+01 9.999999999E-01 1.763459720E-16 5.766706859E-02
2.160000000E+01 9.999999999E-01 1.727300434E-16 5.740009142E-02
2.170000000E+01 9.999999999E-01 1.691912682E-16 5.713557487E-02
2.180000000E+01 9.999999999E-01 1.657277369E-16 5.687348507E-02
2.190000000E+01 9.999999999E-01 1.623375948E-16 5.661378879E-02
2.200000000E+01 9.999999999E-01 1.590190401E-16 5.635645339E-02
2.210000000E+01 9.999999999E-01 1.566122374E-16 5.610144681E-02
2.220000000E+01 9.999999999E-01 1.552044941E-16 5.584873759E-02
2.230000000E+01 9.999999999E-01 1.538156465E-16 5.559829482E-02
2.240000000E+01 9.999999999E-01 1.524453581E-16 5.535008815E-02
2.250000000E+01 9.999999999E-01 1.510932995E-16 5.510408776E-02
2.260000000E+01 9.999999999E-01 1.497591488E-16 5.486026436E-02
2.270000000E+01 9.999999999E-01 1.484425913E-16 5.461858919E-02
2.280000000E+01 9.999999999E-01 1.471433188E-16 5.437903397E-02
2.290000000E+01 9.999999999E-01 1.458610302E-16 5.414157094E-02
2.300000000E+01 9.999999999E-01 1.309593460E-16 5.390617281E-02
2.310000000E+01 9.999999999E-01 1.284644982E-16 5.367281275E-02
2.320000000E+01 9.999999999E-01 1.260193589E-16 5.344146442E-02
2.330000000E+01 9.999999999E-01 1.236227777E-16 5.321210191E-02
2.340000000E+01 9.999999999E-01 1.212736353E-16 5.298469977E-02
2.350000000E+01 9.999999999E-01 1.189708422E-16 5.275923296E-02
2.360000000E+01 9.999999999E-01 1.167133377E-16 5.253567689E-02
2.370000000E+01 9.999999999E-01 1.145000895E-16 5.231400737E-02
2.380000000E+01 9.999999999E-01 1.123300925E-16 5.209420061E-02
2.390000000E+01 9.999999999E-01 1.112164729E-16 5.187623325E-02
2.400000000E+01 9.999999999E-01 1.102915998E-16 5.166008227E-02
2.410000000E+01 9.999999999E-01 1.093782158E-16 5.144572509E-02
2.420000000E+01 9.999999999E-01 1.084761312E-16 5.123313945E-02
2.430000000E+01 9.999999999E-01 1.075851606E-16 5.102230348E-02
2.440000000E+01 9.999999999E-01 1.067051221E-16 5.081319568E-02
2.450000000E+01 9.999999999E-01 1.058358376E-16 5.060579488E-02
2.460000000E+01 9.999999999E-01 1.049771325E-16 5.040008027E-02
2.470000000E+01 9.999999999E-01 1.041288359E-16 5.019603136E-02
2.480000000E+01 9.999999999E-01 1.032907803E-16 4.999362801E-02
2.490000000E+01 9.999999999E-01 1.024628014E-16 4.979285038E-02
2.500000000E+01 9.999999999E-01 9.077410334E-17 4.959367898E-02
2.510000000E+01 9.999999999E-01 8.918900168E-17 4.939609460E-02
2.520000000E+01 9.999999999E-01 8.763294846E-17 4.920007836E-02
2.530000000E+01 9.999999999E-01 8.610532477E-17 4.900561164E-02
2.540000000E+01 9.999999999E-01 8.460552701E-17 4.881267616E-02
2.550000000E+01 9.999999999E-01 8.313296642E-17 4.862125391E-02
2.560000000E+01 9.999999999E-01 8.168706872E-17 4.843132713E-02
2.570000000E+01 9.999999999E-01 8.026727366E-17 4.824287839E-02
2.580000000E+01 9.999999999E-01 7.887303464E-17 4.805589049E-02
2.590000000E+01 9.999999999E-01 7.750381834E-17 4.787034651E-02
2.600000000E+01 9.999999999E-01 7.615910432E-17 4.768622979E-02
2.610000000E+01 9.999999999E-01 7.483838470E-17 4.750352393E-02
2.620000000E+01 9.999999999E-01 7.354116382E-17 4.732221277E-02
2.630000000E+01 9.999999999E-01 7.227701350E-17 4.714228040E-02
2.640000000E+01 9.999999999E-01 7.173049740E-17 4.696371116E-02
2.650000000E+01 9.999999999E-01 7.119015659E-17 4.678648961E-02
2.660000000E+01 9.999999999E-01 7.065589840E-17 4.661060055E-02
2.670000000E+01 9.999999999E-01 7.012763185E-17 4.643602901E-02
2.680000000E+01 9.999999999E-01 6.960526769E-17 4.626276025E-02
2.690000000E+01 9.999999999E-01 6.908871833E-17 4.609077972E-02
2.700000000E+01 9.999999999E-01 6.857789776E-17 4.592007313E-02
2.710000000E+01 9.999999999E-01 6.807272160E-17 4.575062637E-02
2.720000000E+01 9.999999999E-01 6.757310698E-17 4.558242554E-02
2.730000000E+01 1.000000000E+00 6.707897257E-17 4.541545694E-02
2.740000000E+01 1.000000000E+00 6.047946241E-17 4.524970710E-02
2.750000000E+01 1.000000000E+00 5.951368763E-17 4.508516271E-02
2.760000000E+01 1.000000000E+00 5.856408558E-17 4.492181067E-02
2.770000000E+01 1.000000000E+00 5.763034134E-17 4.475963807E-02
2.780000000E+01 1.000000000E+00 5.671214714E-17 4.459863218E-02
2.790000000E+01 1.000000000E+00 5.580920213E-17 4.443878045E-02
2.800000000E+01 1.000000000E+00 5.492121221E-17 4.428007052E-02
2.810000000E+01 1.000000000E+00 5.404788985E-17 4.412249020E-02
2.820000000E+01 1.000000000E+00 5.318895396E-17 4.396602747E-02
2.830000000E+01 1.000000000E+00 5.234412966E-17 4.381067048E-02
2.840000000E+01 1.000000000E+00 5.151314820E-17 4.365640756E-02
2.850000000E+01 1.000000000E+00 5.069574674E-17 4.350322718E-02
2.860000000E+01 1.000000000E+00 5.029143025E-17 4.335111799E-02
2.870000000E+01 1.000000000E+00 4.994157788E-17 4.320006880E-02
2.880000000E+01 1.000000000E+00 4.959536348E-17 4.305006856E-02
2.890000000E+01 1.000000000E+00 4.925273678E-17 4.290110639E-02
2.900000000E+01 1.000000000E+00 4.891364838E-17 4.275317154E-02
2.910000000E+01 1.000000000E+00 4.857804972E-17 4.260625342E-02
2.920000000E+01 1.000000000E+00 4.824589309E-17 4.246034160E-02
2.930000000E+01 1.000000000E+00 4.791713158E-17 4.231542575E-02
2.940000000E+01 1.000000000E+00 4.759171906E-17 4.217149573E-02
2.950000000E+01 1.000000000E+00 4.726961021E-17 4.202854151E-02
2.960000000E+01 1.000000000E+00 4.695076046E-17 4.188655320E-02
2.970000000E+01 1.000000000E+00 4.236145827E-17 4.174552103E-02
2.980000000E+01 1.000000000E+00 4.173599837E-17 4.160543539E-02
2.990000000E+01 1.000000000E+00 4.112021406E-17 4.146628678E-02
3.000000000E+01 1.000000000E+00 4.051393131E-17 4.132806582E-02
3.010000000E+01 1.000000000E+00 3.991697971E-17 4.119076328E-02
3.020000000E+01 1.000000000E+00 3.932919240E-17 4.105437002E-02
3.030000000E+01 1.000000000E+00 3.875040598E-17 4.091887705E-02
3.040000000E+01 1.000000000E+00 3.818046044E-17 4.078427548E-02
3.050000000E+01 1.000000000E+00 3.761919906E-17 4.065055654E-02
3.060000000E+01 1.000000000E+00 3.706646835E-17 4.051771159E-02
3.070000000E+01 1.000000000E+00 3.652211797E-17 4.038573207E-02
3.080000000E+01 1.000000000E+00 3.598600063E-17 4.025460956E-02
3.090000000E+01 1.000000000E+00 3.545797208E-17 4.012433575E-02
3.100000000E+01 1.000000000E+00 3.505594919E-17 3.999490241E-02
3.110000000E+01 1.000000000E+00 3.483087145E-17 3.986630143E-02
3.120000000E+01 1.000000000E+00 3.460795445E-17 3.973852483E-02
3.130000000E+01 1.000000000E+00 3.438717061E-17 3.961156468E-02
3.140000000E+01 1.000000000E+00 3.416849282E-17 3.948541320E-02
3.150000000E+01 1.000000000E+00 3.395189436E-17 3.936006269E-02
3.160000000E+01 1.000000000E+00 3.373734896E-17 3.923550552E-02
3.170000000E+01 1.000000000E+00 3.352483075E-17 3.911173421E-02
