# 04/03/2022 
# Density retrieved from www.chemicool.com/densities.html 
# Includes the real (n) and complex (k) part of the  refractive index. 
# Element, Hf  (Z = 72) 
# Nominal density, g cm-3 =  13.2 
#    E [keV]      n       k    Wavelength [nm] 
1.000000000E+00 9.986303638E-01 4.321343312E-04 1.239841975E+00
1.100000000E+00 9.988665184E-01 3.533502324E-04 1.127129068E+00
1.200000000E+00 9.990625103E-01 2.524111578E-04 1.033201645E+00
1.300000000E+00 9.992031338E-01 2.092925562E-04 9.537245958E-01
1.400000000E+00 9.993498600E-01 1.585312474E-04 8.856014104E-01
1.500000000E+00 9.994715641E-01 1.282949927E-04 8.265613164E-01
1.600000000E+00 9.995868471E-01 1.060256138E-04 7.749012341E-01
1.700000000E+00 9.997418948E-01 2.535442024E-04 7.293188086E-01
1.800000000E+00 9.996887510E-01 3.057790878E-04 6.888010970E-01
1.900000000E+00 9.996313176E-01 2.768163060E-04 6.525484077E-01
2.000000000E+00 9.996345818E-01 2.341379753E-04 6.199209873E-01
2.100000000E+00 9.996681444E-01 2.133866121E-04 5.904009403E-01
2.200000000E+00 9.996658251E-01 1.950779100E-04 5.635645339E-01
2.300000000E+00 9.996813886E-01 1.679953602E-04 5.390617281E-01
2.400000000E+00 9.996991353E-01 1.526570374E-04 5.166008227E-01
2.500000000E+00 9.997129742E-01 1.348098952E-04 4.959367898E-01
2.600000000E+00 9.997312411E-01 1.224300954E-04 4.768622979E-01
2.700000000E+00 9.997435585E-01 1.108150563E-04 4.592007313E-01
2.800000000E+00 9.997548281E-01 9.638144917E-05 4.428007052E-01
2.900000000E+00 9.997682207E-01 8.569150239E-05 4.275317154E-01
3.000000000E+00 9.997810044E-01 7.689827253E-05 4.132806582E-01
3.100000000E+00 9.997927604E-01 6.843695674E-05 3.999490241E-01
3.200000000E+00 9.998038442E-01 6.144513402E-05 3.874506171E-01
3.300000000E+00 9.998152755E-01 5.731562098E-05 3.757096893E-01
3.400000000E+00 9.998241500E-01 5.001658385E-05 3.646594043E-01
3.500000000E+00 9.998331800E-01 4.529959535E-05 3.542405642E-01
3.600000000E+00 9.998422326E-01 4.263028758E-05 3.444005485E-01
3.700000000E+00 9.998496511E-01 3.743761336E-05 3.350924256E-01
3.800000000E+00 9.998569998E-01 3.414164136E-05 3.262742038E-01
3.900000000E+00 9.998640847E-01 3.195985925E-05 3.179081986E-01
4.000000000E+00 9.998707955E-01 3.038184120E-05 3.099604936E-01
4.100000000E+00 9.998764351E-01 2.625166967E-05 3.024004816E-01
4.200000000E+00 9.998820554E-01 2.413519131E-05 2.952004701E-01
4.300000000E+00 9.998874346E-01 2.283125310E-05 2.883353429E-01
4.400000000E+00 9.998924931E-01 2.180526187E-05 2.817822670E-01
4.500000000E+00 9.998970026E-01 1.899873890E-05 2.755204388E-01
4.600000000E+00 9.999013635E-01 1.759363947E-05 2.695308640E-01
4.700000000E+00 9.999054533E-01 1.631361934E-05 2.637961648E-01
4.800000000E+00 9.999093511E-01 1.563560681E-05 2.583004114E-01
4.900000000E+00 9.999130133E-01 1.500393090E-05 2.530289744E-01
5.000000000E+00 9.999164580E-01 1.440977524E-05 2.479683949E-01
5.100000000E+00 9.999197439E-01 1.226351115E-05 2.431062695E-01
5.200000000E+00 9.999228101E-01 1.145050013E-05 2.384311490E-01
5.300000000E+00 9.999257039E-01 1.070210193E-05 2.339324480E-01
5.400000000E+00 9.999284378E-01 1.001914158E-05 2.296003657E-01
5.500000000E+00 9.999310164E-01 9.658121268E-06 2.254258136E-01
5.600000000E+00 9.999334581E-01 9.316268123E-06 2.214003526E-01
5.700000000E+00 9.999357725E-01 8.992248949E-06 2.175161359E-01
5.800000000E+00 9.999381392E-01 7.791629016E-06 2.137658577E-01
5.900000000E+00 9.999402560E-01 7.333487274E-06 2.101427076E-01
6.000000000E+00 9.999422661E-01 6.907630764E-06 2.066403291E-01
6.100000000E+00 9.999441764E-01 6.511347677E-06 2.032527827E-01
6.200000000E+00 9.999459934E-01 6.142191305E-06 1.999745120E-01
6.300000000E+00 9.999477053E-01 5.891540110E-06 1.968003134E-01
6.400000000E+00 9.999493267E-01 5.708867846E-06 1.937253085E-01
6.500000000E+00 9.999508739E-01 5.534561585E-06 1.907449192E-01
6.600000000E+00 9.999523513E-01 5.368118158E-06 1.878548446E-01
6.700000000E+00 9.999540234E-01 4.668376133E-06 1.850510410E-01
6.800000000E+00 9.999554158E-01 4.427960067E-06 1.823297021E-01
6.900000000E+00 9.999567460E-01 4.202350221E-06 1.796872427E-01
7.000000000E+00 9.999580176E-01 3.990458885E-06 1.771202821E-01
7.100000000E+00 9.999592341E-01 3.791291484E-06 1.746256302E-01
7.200000000E+00 9.999603984E-01 3.603937477E-06 1.722002742E-01
7.300000000E+00 9.999614771E-01 3.503475781E-06 1.698413664E-01
7.400000000E+00 9.999625113E-01 3.409427033E-06 1.675462128E-01
7.500000000E+00 9.999635043E-01 3.319115100E-06 1.653122633E-01
7.600000000E+00 9.999644584E-01 3.232344604E-06 1.631371019E-01
7.700000000E+00 9.999656888E-01 2.837058315E-06 1.610184383E-01
7.800000000E+00 9.999666196E-01 2.708304475E-06 1.589540993E-01
7.900000000E+00 9.999675132E-01 2.586513171E-06 1.569420221E-01
8.000000000E+00 9.999683715E-01 2.471235213E-06 1.549802468E-01
8.100000000E+00 9.999691772E-01 2.381198818E-06 1.530669104E-01
8.200000000E+00 9.999699244E-01 2.323474932E-06 1.512002408E-01
8.300000000E+00 9.999706447E-01 2.267824858E-06 1.493785512E-01
8.400000000E+00 9.999716195E-01 2.074059437E-06 1.476002351E-01
8.500000000E+00 9.999723597E-01 1.987357870E-06 1.458637617E-01
8.600000000E+00 9.999730715E-01 1.904972172E-06 1.441676715E-01
8.700000000E+00 9.999737231E-01 1.843394565E-06 1.425105718E-01
8.800000000E+00 9.999743169E-01 1.801737276E-06 1.408911335E-01
8.900000000E+00 9.999751851E-01 1.683519665E-06 1.393080870E-01
9.000000000E+00 9.999758448E-01 1.616818577E-06 1.377602194E-01
9.100000000E+00 9.999763872E-01 1.577637512E-06 1.362463708E-01
9.200000000E+00 9.999772469E-01 1.493847920E-06 1.347654320E-01
9.300000000E+00 9.999778249E-01 1.448901329E-06 1.333163414E-01
9.400000000E+00 9.999788596E-01 1.437617350E-06 1.318980824E-01
9.500000000E+00 9.999798425E-01 1.738297841E-06 1.305096815E-01
9.600000000E+00 9.999803923E-01 2.730057434E-06 1.291502057E-01
9.700000000E+00 9.999802510E-01 3.135595429E-06 1.278187603E-01
9.800000000E+00 9.999802338E-01 3.141962183E-06 1.265144872E-01
9.900000000E+00 9.999804735E-01 3.065886754E-06 1.252365631E-01
1.000000000E+01 9.999806379E-01 2.933737213E-06 1.239841975E-01
1.010000000E+01 9.999809568E-01 2.856047764E-06 1.227566311E-01
1.020000000E+01 9.999812393E-01 2.729561753E-06 1.215531348E-01
1.030000000E+01 9.999815589E-01 2.642669002E-06 1.203730072E-01
1.040000000E+01 9.999819303E-01 2.542553483E-06 1.192155745E-01
1.050000000E+01 9.999822860E-01 2.458985748E-06 1.180801881E-01
1.060000000E+01 9.999827507E-01 2.409977072E-06 1.169662240E-01
1.070000000E+01 9.999832345E-01 2.498159229E-06 1.158730817E-01
1.080000000E+01 9.999835679E-01 2.716797013E-06 1.148001828E-01
1.090000000E+01 9.999836824E-01 2.878778495E-06 1.137469701E-01
1.100000000E+01 9.999837743E-01 2.852735500E-06 1.127129068E-01
1.110000000E+01 9.999840120E-01 2.808925571E-06 1.116974752E-01
1.120000000E+01 9.999842751E-01 2.761968563E-06 1.107001763E-01
1.130000000E+01 9.999844907E-01 2.842955250E-06 1.097205287E-01
1.140000000E+01 9.999845467E-01 2.876219991E-06 1.087580679E-01
1.150000000E+01 9.999847895E-01 2.836008707E-06 1.078123456E-01
1.160000000E+01 9.999848390E-01 2.738948384E-06 1.068829288E-01
1.170000000E+01 9.999850970E-01 2.692328838E-06 1.059693995E-01
1.180000000E+01 9.999851928E-01 2.575387750E-06 1.050713538E-01
1.190000000E+01 9.999853981E-01 2.512740200E-06 1.041884012E-01
1.200000000E+01 9.999856404E-01 2.471035692E-06 1.033201645E-01
1.210000000E+01 9.999857591E-01 2.356891039E-06 1.024662789E-01
1.220000000E+01 9.999859447E-01 2.289163060E-06 1.016263914E-01
1.230000000E+01 9.999861666E-01 2.248524619E-06 1.008001605E-01
1.240000000E+01 9.999863888E-01 2.212404329E-06 9.998725601E-02
1.250000000E+01 9.999865083E-01 2.099812669E-06 9.918735797E-02
1.260000000E+01 9.999866893E-01 2.040953737E-06 9.840015671E-02
1.270000000E+01 9.999868778E-01 1.992802530E-06 9.762535233E-02
1.280000000E+01 9.999870820E-01 1.961786622E-06 9.686265426E-02
1.290000000E+01 9.999872815E-01 1.931489214E-06 9.611178098E-02
1.300000000E+01 9.999874012E-01 1.825224100E-06 9.537245958E-02
1.310000000E+01 9.999875715E-01 1.775694116E-06 9.464442554E-02
1.320000000E+01 9.999877400E-01 1.729442509E-06 9.392742232E-02
1.330000000E+01 9.999879236E-01 1.703533624E-06 9.322120110E-02
1.340000000E+01 9.999881032E-01 1.678202622E-06 9.252552049E-02
1.350000000E+01 9.999882310E-01 1.594675870E-06 9.184014627E-02
1.360000000E+01 9.999883886E-01 1.553074767E-06 9.116485107E-02
1.370000000E+01 9.999885431E-01 1.512776284E-06 9.049941420E-02
1.380000000E+01 9.999886994E-01 1.479780356E-06 8.984362135E-02
1.390000000E+01 9.999888614E-01 1.458565142E-06 8.919726436E-02
1.400000000E+01 9.999890200E-01 1.437802914E-06 8.856014104E-02
1.410000000E+01 9.999891400E-01 1.364260130E-06 8.793205493E-02
1.420000000E+01 9.999892824E-01 1.329944374E-06 8.731281511E-02
1.430000000E+01 9.999894220E-01 1.296660902E-06 8.670223598E-02
1.440000000E+01 9.999895625E-01 1.269671947E-06 8.610013712E-02
1.450000000E+01 9.999897059E-01 1.252219619E-06 8.550634307E-02
1.460000000E+01 9.999898465E-01 1.235124671E-06 8.492068319E-02
1.470000000E+01 9.999899593E-01 1.173945211E-06 8.434299147E-02
1.480000000E+01 9.999900875E-01 1.145516041E-06 8.377310639E-02
1.490000000E+01 9.999902133E-01 1.117908864E-06 8.321087078E-02
1.500000000E+01 9.999903380E-01 1.093425511E-06 8.265613164E-02
1.510000000E+01 9.999904655E-01 1.078991009E-06 8.210874004E-02
1.520000000E+01 9.999905906E-01 1.064840461E-06 8.156855096E-02
1.530000000E+01 9.999907132E-01 1.050966466E-06 8.103542318E-02
1.540000000E+01 9.999908128E-01 9.923521451E-07 8.050921913E-02
1.550000000E+01 9.999909263E-01 9.693548404E-07 7.998980481E-02
1.560000000E+01 9.999910377E-01 9.469932951E-07 7.947704965E-02
1.570000000E+01 9.999911471E-01 9.252464445E-07 7.897082641E-02
1.580000000E+01 9.999912580E-01 9.119963809E-07 7.847101105E-02
1.590000000E+01 9.999913677E-01 9.005608027E-07 7.797748268E-02
1.600000000E+01 9.999914752E-01 8.893389708E-07 7.749012341E-02
1.610000000E+01 9.999915684E-01 8.445147467E-07 7.700881830E-02
1.620000000E+01 9.999916691E-01 8.256721078E-07 7.653345522E-02
1.630000000E+01 9.999917680E-01 8.073292723E-07 7.606392482E-02
1.640000000E+01 9.999918651E-01 7.894703635E-07 7.560012040E-02
1.650000000E+01 9.999919619E-01 7.756511977E-07 7.514193785E-02
1.660000000E+01 9.999920584E-01 7.663341507E-07 7.468927558E-02
1.670000000E+01 9.999921532E-01 7.571839742E-07 7.424203441E-02
1.680000000E+01 9.999922464E-01 7.481967070E-07 7.380011753E-02
1.690000000E+01 9.999923289E-01 7.081821905E-07 7.336343045E-02
1.700000000E+01 9.999924169E-01 6.931811573E-07 7.293188086E-02
1.710000000E+01 9.999925035E-01 6.785589410E-07 7.250537863E-02
1.720000000E+01 9.999925886E-01 6.643040738E-07 7.208383573E-02
1.730000000E+01 9.999926730E-01 6.532433891E-07 7.166716616E-02
1.740000000E+01 9.999927570E-01 6.457564207E-07 7.125528590E-02
1.750000000E+01 9.999928395E-01 6.383974332E-07 7.084811283E-02
1.760000000E+01 9.999929207E-01 6.311635264E-07 7.044556674E-02
1.770000000E+01 9.999930004E-01 6.240518814E-07 7.004756919E-02
1.780000000E+01 9.999930717E-01 5.867564953E-07 6.965404352E-02
1.790000000E+01 9.999931477E-01 5.749248835E-07 6.926491478E-02
1.800000000E+01 9.999932224E-01 5.633774168E-07 6.888010970E-02
1.810000000E+01 9.999932959E-01 5.521059154E-07 6.849955661E-02
1.820000000E+01 9.999933684E-01 5.417227801E-07 6.812318542E-02
1.830000000E+01 9.999934406E-01 5.358184887E-07 6.775092757E-02
1.840000000E+01 9.999935117E-01 5.300102011E-07 6.738271601E-02
1.850000000E+01 9.999935817E-01 5.242958471E-07 6.701848511E-02
1.860000000E+01 9.999936472E-01 4.998319281E-07 6.665817068E-02
1.870000000E+01 9.999937142E-01 4.901062794E-07 6.630170987E-02
1.880000000E+01 9.999937802E-01 4.806049754E-07 6.594904120E-02
1.890000000E+01 9.999938451E-01 4.713218203E-07 6.560010448E-02
1.900000000E+01 9.999939096E-01 4.658500564E-07 6.525484077E-02
1.910000000E+01 9.999939732E-01 4.609848150E-07 6.491319239E-02
1.920000000E+01 9.999940358E-01 4.561953949E-07 6.457510284E-02
1.930000000E+01 9.999940975E-01 4.514802286E-07 6.424051682E-02
1.940000000E+01 9.999941559E-01 4.284170946E-07 6.390938013E-02
1.950000000E+01 9.999942153E-01 4.204059983E-07 6.358163972E-02
1.960000000E+01 9.999942737E-01 4.125723196E-07 6.325724360E-02
1.970000000E+01 9.999943313E-01 4.049113549E-07 6.293614084E-02
1.980000000E+01 9.999943883E-01 3.997367997E-07 6.261828154E-02
1.990000000E+01 9.999944446E-01 3.957294385E-07 6.230361681E-02
2.000000000E+01 9.999945000E-01 3.917820374E-07 6.199209873E-02
2.010000000E+01 9.999945546E-01 3.878934060E-07 6.168368033E-02
2.020000000E+01 9.999946083E-01 3.840623835E-07 6.137831557E-02
2.030000000E+01 9.999946601E-01 3.628877374E-07 6.107595934E-02
2.040000000E+01 9.999947121E-01 3.564047964E-07 6.077656738E-02
2.050000000E+01 9.999947633E-01 3.500591184E-07 6.048009632E-02
2.060000000E+01 9.999948138E-01 3.438472229E-07 6.018650362E-02
2.070000000E+01 9.999948636E-01 3.377657332E-07 5.989574756E-02
2.080000000E+01 9.999949127E-01 3.322762952E-07 5.960778724E-02
2.090000000E+01 9.999949613E-01 3.291042247E-07 5.932258252E-02
2.100000000E+01 9.999950092E-01 3.259773614E-07 5.904009403E-02
2.110000000E+01 9.999950564E-01 3.228948505E-07 5.876028316E-02
2.120000000E+01 9.999951029E-01 3.198558570E-07 5.848311201E-02
2.130000000E+01 9.999951488E-01 3.168595657E-07 5.820854341E-02
2.140000000E+01 9.999951937E-01 2.990053369E-07 5.793654087E-02
2.150000000E+01 9.999952382E-01 2.939184307E-07 5.766706859E-02
2.160000000E+01 9.999952822E-01 2.889339000E-07 5.740009142E-02
2.170000000E+01 9.999953255E-01 2.840492782E-07 5.713557487E-02
2.180000000E+01 9.999953682E-01 2.792621687E-07 5.687348507E-02
2.190000000E+01 9.999954104E-01 2.752179677E-07 5.661378879E-02
2.200000000E+01 9.999954520E-01 2.727216725E-07 5.635645339E-02
2.210000000E+01 9.999954931E-01 2.702591870E-07 5.610144681E-02
2.220000000E+01 9.999955336E-01 2.678299032E-07 5.584873759E-02
2.230000000E+01 9.999955736E-01 2.654332271E-07 5.559829482E-02
2.240000000E+01 9.999956130E-01 2.630685776E-07 5.535008815E-02
2.250000000E+01 9.999956519E-01 2.607353867E-07 5.510408776E-02
2.260000000E+01 9.999956907E-01 2.446959020E-07 5.486026436E-02
2.270000000E+01 9.999957286E-01 2.407483367E-07 5.461858919E-02
2.280000000E+01 9.999957661E-01 2.368760807E-07 5.437903397E-02
2.290000000E+01 9.999958030E-01 2.330774141E-07 5.414157094E-02
2.300000000E+01 9.999958395E-01 2.293506628E-07 5.390617281E-02
2.310000000E+01 9.999958755E-01 2.256941977E-07 5.367281275E-02
2.320000000E+01 9.999959110E-01 2.221064328E-07 5.344146442E-02
2.330000000E+01 9.999959461E-01 2.185858242E-07 5.321210191E-02
2.340000000E+01 9.999959806E-01 2.164232329E-07 5.298469977E-02
2.350000000E+01 9.999960148E-01 2.145852520E-07 5.275923296E-02
2.360000000E+01 9.999960485E-01 2.127705857E-07 5.253567689E-02
2.370000000E+01 9.999960818E-01 2.109788414E-07 5.231400737E-02
2.380000000E+01 9.999961146E-01 2.092096346E-07 5.209420061E-02
2.390000000E+01 9.999961471E-01 2.074625889E-07 5.187623325E-02
2.400000000E+01 9.999961791E-01 2.057373358E-07 5.166008227E-02
2.410000000E+01 9.999962117E-01 1.930355349E-07 5.144572509E-02
2.420000000E+01 9.999962431E-01 1.900983132E-07 5.123313945E-02
2.430000000E+01 9.999962740E-01 1.872137837E-07 5.102230348E-02
2.440000000E+01 9.999963046E-01 1.843808154E-07 5.081319568E-02
2.450000000E+01 9.999963349E-01 1.815983060E-07 5.060579488E-02
2.460000000E+01 9.999963647E-01 1.788651806E-07 5.040008027E-02
2.470000000E+01 9.999963942E-01 1.761803913E-07 5.019603136E-02
2.480000000E+01 9.999964233E-01 1.735429163E-07 4.999362801E-02
2.490000000E+01 9.999964521E-01 1.709517590E-07 4.979285038E-02
2.500000000E+01 9.999964804E-01 1.692500121E-07 4.959367898E-02
2.510000000E+01 9.999965084E-01 1.679040929E-07 4.939609460E-02
2.520000000E+01 9.999965361E-01 1.665741647E-07 4.920007836E-02
2.530000000E+01 9.999965634E-01 1.652599752E-07 4.900561164E-02
2.540000000E+01 9.999965904E-01 1.639612771E-07 4.881267616E-02
2.550000000E+01 9.999966171E-01 1.626778278E-07 4.862125391E-02
2.560000000E+01 9.999966435E-01 1.614093896E-07 4.843132713E-02
2.570000000E+01 9.999966696E-01 1.601557292E-07 4.824287839E-02
2.580000000E+01 9.999966953E-01 1.589166179E-07 4.805589049E-02
2.590000000E+01 9.999967208E-01 1.576918316E-07 4.787034651E-02
2.600000000E+01 9.999967460E-01 1.564811502E-07 4.768622979E-02
2.610000000E+01 9.999967709E-01 1.552843581E-07 4.750352393E-02
2.620000000E+01 9.999967955E-01 1.541012434E-07 4.732221277E-02
2.630000000E+01 9.999968198E-01 1.529315988E-07 4.714228040E-02
2.640000000E+01 9.999968438E-01 1.517752203E-07 4.696371116E-02
2.650000000E+01 9.999968676E-01 1.506319082E-07 4.678648961E-02
2.660000000E+01 9.999968939E-01 1.341977792E-07 4.661060055E-02
2.670000000E+01 9.999969173E-01 1.323460365E-07 4.643602901E-02
2.680000000E+01 9.999969404E-01 1.305244276E-07 4.626276025E-02
2.690000000E+01 9.999969633E-01 1.287323654E-07 4.609077972E-02
2.700000000E+01 9.999969859E-01 1.269692766E-07 4.592007313E-02
2.710000000E+01 9.999970082E-01 1.252346007E-07 4.575062637E-02
2.720000000E+01 9.999970303E-01 1.235277900E-07 4.558242554E-02
2.730000000E+01 9.999970522E-01 1.218483092E-07 4.541545694E-02
2.740000000E+01 9.999970738E-01 1.201956352E-07 4.524970710E-02
2.750000000E+01 9.999970952E-01 1.185692563E-07 4.508516271E-02
2.760000000E+01 9.999971163E-01 1.169686727E-07 4.492181067E-02
2.770000000E+01 9.999971373E-01 1.153933955E-07 4.475963807E-02
2.780000000E+01 9.999971580E-01 1.138429465E-07 4.459863218E-02
2.790000000E+01 9.999971784E-01 1.123168586E-07 4.443878045E-02
2.800000000E+01 9.999971987E-01 1.108146745E-07 4.428007052E-02
2.810000000E+01 9.999972187E-01 1.093359473E-07 4.412249020E-02
2.820000000E+01 9.999972385E-01 1.078802397E-07 4.396602747E-02
2.830000000E+01 9.999972581E-01 1.064471241E-07 4.381067048E-02
2.840000000E+01 9.999972775E-01 1.050361822E-07 4.365640756E-02
2.850000000E+01 9.999972967E-01 1.038414661E-07 4.350322718E-02
2.860000000E+01 9.999973155E-01 1.031165715E-07 4.335111799E-02
2.870000000E+01 9.999973342E-01 1.023992410E-07 4.320006880E-02
2.880000000E+01 9.999973527E-01 1.016893697E-07 4.305006856E-02
2.890000000E+01 9.999973710E-01 1.009868546E-07 4.290110639E-02
2.900000000E+01 9.999973891E-01 1.002915943E-07 4.275317154E-02
2.910000000E+01 9.999974070E-01 9.960348935E-08 4.260625342E-02
2.920000000E+01 9.999974247E-01 9.892244184E-08 4.246034160E-02
2.930000000E+01 9.999974423E-01 9.824835562E-08 4.231542575E-02
2.940000000E+01 9.999974596E-01 9.758113612E-08 4.217149573E-02
2.950000000E+01 9.999974768E-01 9.692069039E-08 4.202854151E-02
2.960000000E+01 9.999974939E-01 9.626692706E-08 4.188655320E-02
2.970000000E+01 9.999975107E-01 9.561975628E-08 4.174552103E-02
2.980000000E+01 9.999975274E-01 9.497908970E-08 4.160543539E-02
2.990000000E+01 9.999975439E-01 9.434484045E-08 4.146628678E-02
3.000000000E+01 9.999975602E-01 9.371692313E-08 4.132806582E-02
3.010000000E+01 9.999975764E-01 9.309525371E-08 4.119076328E-02
3.020000000E+01 9.999975925E-01 9.247974959E-08 4.105437002E-02
3.030000000E+01 9.999976083E-01 9.187032950E-08 4.091887705E-02
3.040000000E+01 9.999976269E-01 8.171517260E-08 4.078427548E-02
3.050000000E+01 9.999976426E-01 8.072122754E-08 4.065055654E-02
3.060000000E+01 9.999976581E-01 7.974148894E-08 4.051771159E-02
3.070000000E+01 9.999976735E-01 7.877571396E-08 4.038573207E-02
3.080000000E+01 9.999976887E-01 7.782366461E-08 4.025460956E-02
3.090000000E+01 9.999977037E-01 7.688510767E-08 4.012433575E-02
3.100000000E+01 9.999977187E-01 7.595981457E-08 3.999490241E-02
3.110000000E+01 9.999977334E-01 7.504756128E-08 3.986630143E-02
3.120000000E+01 9.999977481E-01 7.414812822E-08 3.973852483E-02
3.130000000E+01 9.999977626E-01 7.326130015E-08 3.961156468E-02
3.140000000E+01 9.999977769E-01 7.238686605E-08 3.948541320E-02
3.150000000E+01 9.999977911E-01 7.152461908E-08 3.936006269E-02
3.160000000E+01 9.999978052E-01 7.067435642E-08 3.923550552E-02
3.170000000E+01 9.999978191E-01 6.983587922E-08 3.911173421E-02
