# 04/03/2022 
# Density retrieved from www.chemicool.com/densities.html 
# Includes the real (n) and complex (k) part of the  refractive index. 
# Element, K  (Z = 19) 
# Nominal density, g cm-3 =  0.062 
#    E [keV]      n       k    Wavelength [nm] 
1.000000000E+00 9.999877427E-01 2.480964038E-06 1.239841975E+00
1.100000000E+00 9.999898694E-01 1.766430495E-06 1.127129068E+00
1.200000000E+00 9.999915032E-01 1.294340775E-06 1.033201645E+00
1.300000000E+00 9.999927672E-01 1.030125215E-06 9.537245958E-01
1.400000000E+00 9.999937924E-01 7.421076337E-07 8.856014104E-01
1.500000000E+00 9.999945983E-01 6.171697733E-07 8.265613164E-01
1.600000000E+00 9.999952793E-01 4.564261527E-07 7.749012341E-01
1.700000000E+00 9.999958250E-01 3.829932260E-07 7.293188086E-01
1.800000000E+00 9.999962972E-01 2.965264941E-07 6.888010970E-01
1.900000000E+00 9.999966868E-01 2.446110583E-07 6.525484077E-01
2.000000000E+00 9.999970098E-01 2.207614802E-07 6.199209873E-01
2.100000000E+00 9.999973099E-01 1.677214384E-07 5.904009403E-01
2.200000000E+00 9.999975530E-01 1.466935659E-07 5.635645339E-01
2.300000000E+00 9.999977762E-01 1.197819253E-07 5.390617281E-01
2.400000000E+00 9.999979659E-01 1.021308811E-07 5.166008227E-01
2.500000000E+00 9.999981285E-01 9.113438891E-08 4.959367898E-01
2.600000000E+00 9.999982697E-01 8.425886549E-08 4.768622979E-01
2.700000000E+00 9.999984178E-01 6.585652555E-08 4.592007313E-01
2.800000000E+00 9.999985350E-01 5.781074108E-08 4.428007052E-01
2.900000000E+00 9.999986343E-01 5.389253389E-08 4.275317154E-01
3.000000000E+00 9.999987450E-01 4.433386654E-08 4.132806582E-01
3.100000000E+00 9.999988283E-01 4.046284054E-08 3.999490241E-01
3.200000000E+00 9.999989213E-01 3.477155812E-08 3.874506171E-01
3.300000000E+00 9.999990030E-01 3.096927994E-08 3.757096893E-01
3.400000000E+00 9.999990854E-01 2.767318263E-08 3.646594043E-01
3.500000000E+00 9.999991826E-01 2.527166576E-08 3.542405642E-01
3.600000000E+00 9.999993009E-01 1.478466536E-07 3.444005485E-01
3.700000000E+00 9.999992423E-01 1.850235921E-07 3.350924256E-01
3.800000000E+00 9.999992397E-01 1.687758678E-07 3.262742038E-01
3.900000000E+00 9.999992602E-01 1.555650829E-07 3.179081986E-01
4.000000000E+00 9.999992807E-01 1.423172516E-07 3.099604936E-01
4.100000000E+00 9.999993031E-01 1.297850919E-07 3.024004816E-01
4.200000000E+00 9.999993267E-01 1.185121782E-07 2.952004701E-01
4.300000000E+00 9.999993515E-01 1.088912056E-07 2.883353429E-01
4.400000000E+00 9.999993778E-01 1.020164444E-07 2.817822670E-01
4.500000000E+00 9.999994007E-01 9.392198749E-08 2.755204388E-01
4.600000000E+00 9.999994226E-01 8.629572274E-08 2.695308640E-01
4.700000000E+00 9.999994436E-01 7.937735496E-08 2.637961648E-01
4.800000000E+00 9.999994643E-01 7.363748165E-08 2.583004114E-01
4.900000000E+00 9.999994837E-01 6.792222826E-08 2.530289744E-01
5.000000000E+00 9.999995025E-01 6.313690568E-08 2.479683949E-01
5.100000000E+00 9.999995211E-01 5.968317686E-08 2.431062695E-01
5.200000000E+00 9.999995377E-01 5.493354525E-08 2.384311490E-01
5.300000000E+00 9.999995539E-01 5.117261812E-08 2.339324480E-01
5.400000000E+00 9.999995698E-01 4.859661931E-08 2.296003657E-01
5.500000000E+00 9.999995844E-01 4.517485024E-08 2.254258136E-01
5.600000000E+00 9.999995982E-01 4.190373053E-08 2.214003526E-01
5.700000000E+00 9.999996116E-01 3.928071685E-08 2.175161359E-01
5.800000000E+00 9.999996245E-01 3.709686975E-08 2.137658577E-01
5.900000000E+00 9.999996366E-01 3.459732629E-08 2.101427076E-01
6.000000000E+00 9.999996484E-01 3.289741057E-08 2.066403291E-01
6.100000000E+00 9.999996598E-01 3.182764795E-08 2.032527827E-01
6.200000000E+00 9.999996700E-01 2.880802266E-08 1.999745120E-01
6.300000000E+00 9.999996802E-01 2.740589020E-08 1.968003134E-01
6.400000000E+00 9.999996901E-01 2.655614702E-08 1.937253085E-01
6.500000000E+00 9.999996992E-01 2.420061335E-08 1.907449192E-01
6.600000000E+00 9.999997081E-01 2.286793855E-08 1.878548446E-01
6.700000000E+00 9.999997166E-01 2.169405554E-08 1.850510410E-01
6.800000000E+00 9.999997249E-01 2.106068670E-08 1.823297021E-01
6.900000000E+00 9.999997328E-01 2.045465560E-08 1.796872427E-01
7.000000000E+00 9.999997401E-01 1.839533526E-08 1.771202821E-01
7.100000000E+00 9.999997473E-01 1.744819922E-08 1.746256302E-01
7.200000000E+00 9.999997542E-01 1.655790484E-08 1.722002742E-01
7.300000000E+00 9.999997608E-01 1.572882168E-08 1.698413664E-01
7.400000000E+00 9.999997672E-01 1.530659071E-08 1.675462128E-01
7.500000000E+00 9.999997734E-01 1.490113613E-08 1.653122633E-01
7.600000000E+00 9.999997793E-01 1.451158081E-08 1.631371019E-01
7.700000000E+00 9.999997850E-01 1.413710419E-08 1.610184383E-01
7.800000000E+00 9.999997904E-01 1.228269772E-08 1.589540993E-01
7.900000000E+00 9.999997956E-01 1.170576934E-08 1.569420221E-01
8.000000000E+00 9.999998007E-01 1.116020089E-08 1.549802468E-01
8.100000000E+00 9.999998056E-01 1.064397534E-08 1.530669104E-01
8.200000000E+00 9.999998103E-01 1.025642501E-08 1.512002408E-01
8.300000000E+00 9.999998148E-01 1.001077105E-08 1.493785512E-01
8.400000000E+00 9.999998192E-01 9.773838123E-09 1.476002351E-01
8.500000000E+00 9.999998234E-01 9.545218241E-09 1.458637617E-01
8.600000000E+00 9.999998275E-01 9.324527014E-09 1.441676715E-01
8.700000000E+00 9.999998315E-01 8.140037760E-09 1.425105718E-01
8.800000000E+00 9.999998353E-01 7.794387538E-09 1.408911335E-01
8.900000000E+00 9.999998390E-01 7.465682098E-09 1.393080870E-01
9.000000000E+00 9.999998425E-01 7.152938301E-09 1.377602194E-01
9.100000000E+00 9.999998460E-01 6.855239387E-09 1.362463708E-01
9.200000000E+00 9.999998493E-01 6.571729857E-09 1.347654320E-01
9.300000000E+00 9.999998526E-01 6.395682128E-09 1.333163414E-01
9.400000000E+00 9.999998557E-01 6.260327606E-09 1.318980824E-01
9.500000000E+00 9.999998587E-01 6.129224900E-09 1.305096815E-01
9.600000000E+00 9.999998616E-01 6.002197778E-09 1.291502057E-01
9.700000000E+00 9.999998645E-01 5.879079044E-09 1.278187603E-01
9.800000000E+00 9.999998673E-01 5.175143453E-09 1.265144872E-01
9.900000000E+00 9.999998700E-01 4.977921129E-09 1.252365631E-01
1.000000000E+01 9.999998726E-01 4.789340171E-09 1.239841975E-01
1.010000000E+01 9.999998751E-01 4.608952575E-09 1.227566311E-01
1.020000000E+01 9.999998775E-01 4.436337385E-09 1.215531348E-01
1.030000000E+01 9.999998799E-01 4.271098820E-09 1.203730072E-01
1.040000000E+01 9.999998822E-01 4.112864557E-09 1.192155745E-01
1.050000000E+01 9.999998845E-01 4.009006723E-09 1.180801881E-01
1.060000000E+01 9.999998866E-01 3.933721887E-09 1.169662240E-01
1.070000000E+01 9.999998887E-01 3.860537962E-09 1.158730817E-01
1.080000000E+01 9.999998908E-01 3.789377497E-09 1.148001828E-01
1.090000000E+01 9.999998928E-01 3.720166579E-09 1.137469701E-01
1.100000000E+01 9.999998947E-01 3.652834638E-09 1.127129068E-01
1.110000000E+01 9.999998967E-01 3.210084111E-09 1.116974752E-01
1.120000000E+01 9.999998986E-01 3.101108806E-09 1.107001763E-01
1.130000000E+01 9.999999004E-01 2.996373714E-09 1.097205287E-01
1.140000000E+01 9.999999021E-01 2.895683619E-09 1.087580679E-01
1.150000000E+01 9.999999038E-01 2.798853779E-09 1.078123456E-01
1.160000000E+01 9.999999055E-01 2.705709280E-09 1.068829288E-01
1.170000000E+01 9.999999071E-01 2.616084436E-09 1.059693995E-01
1.180000000E+01 9.999999087E-01 2.529822238E-09 1.050713538E-01
1.190000000E+01 9.999999102E-01 2.475973909E-09 1.041884012E-01
1.200000000E+01 9.999999117E-01 2.434879620E-09 1.033201645E-01
1.210000000E+01 9.999999132E-01 2.394799981E-09 1.024662789E-01
1.220000000E+01 9.999999146E-01 2.355701863E-09 1.016263914E-01
1.230000000E+01 9.999999160E-01 2.317553475E-09 1.008001605E-01
1.240000000E+01 9.999999173E-01 2.280324306E-09 9.998725601E-02
1.250000000E+01 9.999999186E-01 2.243985058E-09 9.918735797E-02
1.260000000E+01 9.999999200E-01 1.966622321E-09 9.840015671E-02
1.270000000E+01 9.999999213E-01 1.907046604E-09 9.762535233E-02
1.280000000E+01 9.999999225E-01 1.849527167E-09 9.686265426E-02
1.290000000E+01 9.999999237E-01 1.793980101E-09 9.611178098E-02
1.300000000E+01 9.999999249E-01 1.740325490E-09 9.537245958E-02
1.310000000E+01 9.999999260E-01 1.688487189E-09 9.464442554E-02
1.320000000E+01 9.999999271E-01 1.638392623E-09 9.392742232E-02
1.330000000E+01 9.999999282E-01 1.589972596E-09 9.322120110E-02
1.340000000E+01 9.999999293E-01 1.558030225E-09 9.252552049E-02
1.350000000E+01 9.999999304E-01 1.535033784E-09 9.184014627E-02
1.360000000E+01 9.999999314E-01 1.512542751E-09 9.116485107E-02
1.370000000E+01 9.999999324E-01 1.490542422E-09 9.049941420E-02
1.380000000E+01 9.999999334E-01 1.469018626E-09 8.984362135E-02
1.390000000E+01 9.999999343E-01 1.447957700E-09 8.919726436E-02
1.400000000E+01 9.999999352E-01 1.427346465E-09 8.856014104E-02
1.410000000E+01 9.999999362E-01 1.407172210E-09 8.793205493E-02
1.420000000E+01 9.999999371E-01 1.235126169E-09 8.731281511E-02
1.430000000E+01 9.999999380E-01 1.201709510E-09 8.670223598E-02
1.440000000E+01 9.999999389E-01 1.169320661E-09 8.610013712E-02
1.450000000E+01 9.999999397E-01 1.137922246E-09 8.550634307E-02
1.460000000E+01 9.999999405E-01 1.107478474E-09 8.492068319E-02
1.470000000E+01 9.999999414E-01 1.077955063E-09 8.434299147E-02
1.480000000E+01 9.999999422E-01 1.049319165E-09 8.377310639E-02
1.490000000E+01 9.999999429E-01 1.021539297E-09 8.321087078E-02
1.500000000E+01 9.999999437E-01 9.945852796E-10 8.265613164E-02
1.510000000E+01 9.999999444E-01 9.684281713E-10 8.210874004E-02
1.520000000E+01 9.999999452E-01 9.540545201E-10 8.156855096E-02
1.530000000E+01 9.999999459E-01 9.416239750E-10 8.103542318E-02
1.540000000E+01 9.999999466E-01 9.294347964E-10 8.050921913E-02
1.550000000E+01 9.999999473E-01 9.174807755E-10 7.998980481E-02
1.560000000E+01 9.999999479E-01 9.057559020E-10 7.947704965E-02
1.570000000E+01 9.999999486E-01 8.942543564E-10 7.897082641E-02
1.580000000E+01 9.999999493E-01 8.829705028E-10 7.847101105E-02
1.590000000E+01 9.999999499E-01 8.718988818E-10 7.797748268E-02
1.600000000E+01 9.999999506E-01 7.738548149E-10 7.749012341E-02
1.610000000E+01 9.999999512E-01 7.551585716E-10 7.700881830E-02
1.620000000E+01 9.999999518E-01 7.369746868E-10 7.653345522E-02
1.630000000E+01 9.999999524E-01 7.192865603E-10 7.606392482E-02
1.640000000E+01 9.999999530E-01 7.020782196E-10 7.560012040E-02
1.650000000E+01 9.999999535E-01 6.853342922E-10 7.514193785E-02
1.660000000E+01 9.999999541E-01 6.690399800E-10 7.468927558E-02
1.670000000E+01 9.999999546E-01 6.531810347E-10 7.424203441E-02
1.680000000E+01 9.999999552E-01 6.377437343E-10 7.380011753E-02
1.690000000E+01 9.999999557E-01 6.227148610E-10 7.336343045E-02
1.700000000E+01 9.999999562E-01 6.100976214E-10 7.293188086E-02
1.710000000E+01 9.999999568E-01 6.029828412E-10 7.250537863E-02
1.720000000E+01 9.999999573E-01 5.959917949E-10 7.208383573E-02
1.730000000E+01 9.999999578E-01 5.891216298E-10 7.166716616E-02
1.740000000E+01 9.999999582E-01 5.823695752E-10 7.125528590E-02
1.750000000E+01 9.999999587E-01 5.757329391E-10 7.084811283E-02
1.760000000E+01 9.999999592E-01 5.692091058E-10 7.044556674E-02
1.770000000E+01 9.999999596E-01 5.627955332E-10 7.004756919E-02
1.780000000E+01 9.999999601E-01 5.564897507E-10 6.965404352E-02
1.790000000E+01 9.999999605E-01 5.502893561E-10 6.926491478E-02
1.800000000E+01 9.999999610E-01 4.865266446E-10 6.888010970E-02
1.810000000E+01 9.999999614E-01 4.759615720E-10 6.849955661E-02
1.820000000E+01 9.999999619E-01 4.656552443E-10 6.812318542E-02
1.830000000E+01 9.999999623E-01 4.556001769E-10 6.775092757E-02
1.840000000E+01 9.999999627E-01 4.457891380E-10 6.738271601E-02
1.850000000E+01 9.999999631E-01 4.362151383E-10 6.701848511E-02
1.860000000E+01 9.999999635E-01 4.268714221E-10 6.665817068E-02
1.870000000E+01 9.999999639E-01 4.177514582E-10 6.630170987E-02
1.880000000E+01 9.999999643E-01 4.088489312E-10 6.594904120E-02
1.890000000E+01 9.999999647E-01 4.001577336E-10 6.560010448E-02
1.900000000E+01 9.999999650E-01 3.916719578E-10 6.525484077E-02
1.910000000E+01 9.999999654E-01 3.857574673E-10 6.491319239E-02
1.920000000E+01 9.999999658E-01 3.817496247E-10 6.457510284E-02
1.930000000E+01 9.999999661E-01 3.778039186E-10 6.424051682E-02
1.940000000E+01 9.999999665E-01 3.739190712E-10 6.390938013E-02
1.950000000E+01 9.999999668E-01 3.700938374E-10 6.358163972E-02
1.960000000E+01 9.999999671E-01 3.663270035E-10 6.325724360E-02
1.970000000E+01 9.999999675E-01 3.626173868E-10 6.293614084E-02
1.980000000E+01 9.999999678E-01 3.589638344E-10 6.261828154E-02
1.990000000E+01 9.999999681E-01 3.553652222E-10 6.230361681E-02
2.000000000E+01 9.999999684E-01 3.518204541E-10 6.199209873E-02
2.010000000E+01 9.999999688E-01 3.483284613E-10 6.168368033E-02
2.020000000E+01 9.999999691E-01 3.079604755E-10 6.137831557E-02
2.030000000E+01 9.999999694E-01 3.019682969E-10 6.107595934E-02
2.040000000E+01 9.999999697E-01 2.961073138E-10 6.077656738E-02
2.050000000E+01 9.999999700E-01 2.903741338E-10 6.048009632E-02
2.060000000E+01 9.999999703E-01 2.847654672E-10 6.018650362E-02
2.070000000E+01 9.999999706E-01 2.792781229E-10 5.989574756E-02
2.080000000E+01 9.999999709E-01 2.739090051E-10 5.960778724E-02
2.090000000E+01 9.999999711E-01 2.686551104E-10 5.932258252E-02
2.100000000E+01 9.999999714E-01 2.635135243E-10 5.904009403E-02
2.110000000E+01 9.999999717E-01 2.584814181E-10 5.876028316E-02
2.120000000E+01 9.999999720E-01 2.535560463E-10 5.848311201E-02
2.130000000E+01 9.999999722E-01 2.487347436E-10 5.820854341E-02
2.140000000E+01 9.999999725E-01 2.441625282E-10 5.793654087E-02
2.150000000E+01 9.999999727E-01 2.418965309E-10 5.766706859E-02
2.160000000E+01 9.999999730E-01 2.396619329E-10 5.740009142E-02
2.170000000E+01 9.999999732E-01 2.374581567E-10 5.713557487E-02
2.180000000E+01 9.999999735E-01 2.352846381E-10 5.687348507E-02
2.190000000E+01 9.999999737E-01 2.331408257E-10 5.661378879E-02
2.200000000E+01 9.999999740E-01 2.310261806E-10 5.635645339E-02
2.210000000E+01 9.999999742E-01 2.289401761E-10 5.610144681E-02
2.220000000E+01 9.999999744E-01 2.268822973E-10 5.584873759E-02
2.230000000E+01 9.999999747E-01 2.248520409E-10 5.559829482E-02
2.240000000E+01 9.999999749E-01 2.228489146E-10 5.535008815E-02
2.250000000E+01 9.999999751E-01 2.208724373E-10 5.510408776E-02
2.260000000E+01 9.999999753E-01 1.968231576E-10 5.486026436E-02
2.270000000E+01 9.999999756E-01 1.933813033E-10 5.461858919E-02
2.280000000E+01 9.999999758E-01 1.900070097E-10 5.437903397E-02
2.290000000E+01 9.999999760E-01 1.866987111E-10 5.414157094E-02
2.300000000E+01 9.999999762E-01 1.834548841E-10 5.390617281E-02
2.310000000E+01 9.999999764E-01 1.802740462E-10 5.367281275E-02
2.320000000E+01 9.999999766E-01 1.771547550E-10 5.344146442E-02
2.330000000E+01 9.999999768E-01 1.740956062E-10 5.321210191E-02
2.340000000E+01 9.999999770E-01 1.710952333E-10 5.298469977E-02
2.350000000E+01 9.999999772E-01 1.681523058E-10 5.275923296E-02
2.360000000E+01 9.999999774E-01 1.652655283E-10 5.253567689E-02
2.370000000E+01 9.999999776E-01 1.624336395E-10 5.231400737E-02
2.380000000E+01 9.999999778E-01 1.596554112E-10 5.209420061E-02
2.390000000E+01 9.999999780E-01 1.569296471E-10 5.187623325E-02
2.400000000E+01 9.999999781E-01 1.550849256E-10 5.166008227E-02
2.410000000E+01 9.999999783E-01 1.538005840E-10 5.144572509E-02
2.420000000E+01 9.999999785E-01 1.525321309E-10 5.123313945E-02
2.430000000E+01 9.999999787E-01 1.512793056E-10 5.102230348E-02
2.440000000E+01 9.999999789E-01 1.500418523E-10 5.081319568E-02
2.450000000E+01 9.999999790E-01 1.488195205E-10 5.060579488E-02
2.460000000E+01 9.999999792E-01 1.476120649E-10 5.040008027E-02
2.470000000E+01 9.999999794E-01 1.464192450E-10 5.019603136E-02
2.480000000E+01 9.999999795E-01 1.452408253E-10 4.999362801E-02
2.490000000E+01 9.999999797E-01 1.440765748E-10 4.979285038E-02
2.500000000E+01 9.999999799E-01 1.429262675E-10 4.959367898E-02
2.510000000E+01 9.999999800E-01 1.417896814E-10 4.939609460E-02
2.520000000E+01 9.999999802E-01 1.406665992E-10 4.920007836E-02
2.530000000E+01 9.999999803E-01 1.395568079E-10 4.900561164E-02
2.540000000E+01 9.999999805E-01 1.233268553E-10 4.881267616E-02
2.550000000E+01 9.999999807E-01 1.213964706E-10 4.862125391E-02
2.560000000E+01 9.999999808E-01 1.194999060E-10 4.843132713E-02
2.570000000E+01 9.999999810E-01 1.176364622E-10 4.824287839E-02
2.580000000E+01 9.999999811E-01 1.158054568E-10 4.805589049E-02
2.590000000E+01 9.999999812E-01 1.140062236E-10 4.787034651E-02
2.600000000E+01 9.999999814E-01 1.122381126E-10 4.768622979E-02
2.610000000E+01 9.999999815E-01 1.105004893E-10 4.750352393E-02
2.620000000E+01 9.999999817E-01 1.087927342E-10 4.732221277E-02
2.630000000E+01 9.999999818E-01 1.071142425E-10 4.714228040E-02
2.640000000E+01 9.999999820E-01 1.054644238E-10 4.696371116E-02
2.650000000E+01 9.999999821E-01 1.038427014E-10 4.678648961E-02
2.660000000E+01 9.999999822E-01 1.022485122E-10 4.661060055E-02
2.670000000E+01 9.999999824E-01 1.006813064E-10 4.643602901E-02
2.680000000E+01 9.999999825E-01 9.914054682E-11 4.626276025E-02
2.690000000E+01 9.999999826E-01 9.762570880E-11 4.609077972E-02
2.700000000E+01 9.999999828E-01 9.677829775E-11 4.592007313E-02
2.710000000E+01 9.999999829E-01 9.606538454E-11 4.575062637E-02
2.720000000E+01 9.999999830E-01 9.536031988E-11 4.558242554E-02
2.730000000E+01 9.999999831E-01 9.466298899E-11 4.541545694E-02
2.740000000E+01 9.999999833E-01 9.397327916E-11 4.524970710E-02
2.750000000E+01 9.999999834E-01 9.329107975E-11 4.508516271E-02
2.760000000E+01 9.999999835E-01 9.261628211E-11 4.492181067E-02
2.770000000E+01 9.999999836E-01 9.194877955E-11 4.475963807E-02
2.780000000E+01 9.999999837E-01 9.128846729E-11 4.459863218E-02
2.790000000E+01 9.999999838E-01 9.063524243E-11 4.443878045E-02
2.800000000E+01 9.999999840E-01 8.998900390E-11 4.428007052E-02
2.810000000E+01 9.999999841E-01 8.934965244E-11 4.412249020E-02
2.820000000E+01 9.999999842E-01 8.871709052E-11 4.396602747E-02
2.830000000E+01 9.999999843E-01 8.809122234E-11 4.381067048E-02
2.840000000E+01 9.999999844E-01 8.747195381E-11 4.365640756E-02
2.850000000E+01 9.999999845E-01 7.757555847E-11 4.350322718E-02
2.860000000E+01 9.999999846E-01 7.648617843E-11 4.335111799E-02
2.870000000E+01 9.999999847E-01 7.541386248E-11 4.320006880E-02
2.880000000E+01 9.999999849E-01 7.435829533E-11 4.305006856E-02
2.890000000E+01 9.999999850E-01 7.331916847E-11 4.290110639E-02
2.900000000E+01 9.999999851E-01 7.229618004E-11 4.275317154E-02
2.910000000E+01 9.999999852E-01 7.128903464E-11 4.260625342E-02
2.920000000E+01 9.999999853E-01 7.029744318E-11 4.246034160E-02
2.930000000E+01 9.999999854E-01 6.932112273E-11 4.231542575E-02
2.940000000E+01 9.999999855E-01 6.835979635E-11 4.217149573E-02
2.950000000E+01 9.999999856E-01 6.741319298E-11 4.202854151E-02
2.960000000E+01 9.999999857E-01 6.648104725E-11 4.188655320E-02
2.970000000E+01 9.999999858E-01 6.556309940E-11 4.174552103E-02
2.980000000E+01 9.999999859E-01 6.465909508E-11 4.160543539E-02
2.990000000E+01 9.999999859E-01 6.376878526E-11 4.146628678E-02
3.000000000E+01 9.999999860E-01 6.289192612E-11 4.132806582E-02
3.010000000E+01 9.999999861E-01 6.202827887E-11 4.119076328E-02
3.020000000E+01 9.999999862E-01 6.155755908E-11 4.105437002E-02
3.030000000E+01 9.999999863E-01 6.115190905E-11 4.091887705E-02
3.040000000E+01 9.999999864E-01 6.075025556E-11 4.078427548E-02
3.050000000E+01 9.999999865E-01 6.035254628E-11 4.065055654E-02
3.060000000E+01 9.999999866E-01 5.995872974E-11 4.051771159E-02
3.070000000E+01 9.999999867E-01 5.956875530E-11 4.038573207E-02
3.080000000E+01 9.999999868E-01 5.918257314E-11 4.025460956E-02
3.090000000E+01 9.999999868E-01 5.880013425E-11 4.012433575E-02
3.100000000E+01 9.999999869E-01 5.842139041E-11 3.999490241E-02
3.110000000E+01 9.999999870E-01 5.804629417E-11 3.986630143E-02
3.120000000E+01 9.999999871E-01 5.767479884E-11 3.973852483E-02
3.130000000E+01 9.999999872E-01 5.730685848E-11 3.961156468E-02
3.140000000E+01 9.999999873E-01 5.694242787E-11 3.948541320E-02
3.150000000E+01 9.999999873E-01 5.658146251E-11 3.936006269E-02
3.160000000E+01 9.999999874E-01 5.622391862E-11 3.923550552E-02
3.170000000E+01 9.999999875E-01 5.586975309E-11 3.911173421E-02
