# 04/03/2022 
# Density retrieved from www.chemicool.com/densities.html 
# Includes the real (n) and complex (k) part of the  refractive index. 
# Element, Kr  (Z = 36) 
# Nominal density, g cm-3 =  0.003708 
#    E [keV]      n       k    Wavelength [nm] 
1.000000000E+00 9.999994779E-01 1.041718523E-07 1.239841975E+00
1.100000000E+00 9.999995690E-01 8.302082720E-08 1.127129068E+00
1.200000000E+00 9.999996467E-01 5.663454936E-08 1.033201645E+00
1.300000000E+00 9.999997067E-01 4.321681518E-08 9.537245958E-01
1.400000000E+00 9.999997516E-01 3.453004313E-08 8.856014104E-01
1.500000000E+00 9.999997953E-01 2.682891053E-08 8.265613164E-01
1.600000000E+00 9.999998413E-01 2.123766585E-08 7.749012341E-01
1.700000000E+00 9.999998906E-01 6.684172996E-08 7.293188086E-01
1.800000000E+00 9.999998708E-01 8.267827050E-08 6.888010970E-01
1.900000000E+00 9.999998685E-01 7.274616611E-08 6.525484077E-01
2.000000000E+00 9.999998694E-01 6.687249243E-08 6.199209873E-01
2.100000000E+00 9.999998715E-01 5.538787546E-08 5.904009403E-01
2.200000000E+00 9.999998785E-01 4.712221114E-08 5.635645339E-01
2.300000000E+00 9.999998860E-01 4.053551572E-08 5.390617281E-01
2.400000000E+00 9.999998931E-01 3.481359385E-08 5.166008227E-01
2.500000000E+00 9.999999000E-01 3.019052449E-08 4.959367898E-01
2.600000000E+00 9.999999065E-01 2.631311123E-08 4.768622979E-01
2.700000000E+00 9.999999129E-01 2.384370700E-08 4.592007313E-01
2.800000000E+00 9.999999180E-01 2.040129600E-08 4.428007052E-01
2.900000000E+00 9.999999230E-01 1.789285189E-08 4.275317154E-01
3.000000000E+00 9.999999277E-01 1.585824812E-08 4.132806582E-01
3.100000000E+00 9.999999320E-01 1.410588174E-08 3.999490241E-01
3.200000000E+00 9.999999360E-01 1.259271093E-08 3.874506171E-01
3.300000000E+00 9.999999397E-01 1.128040505E-08 3.757096893E-01
3.400000000E+00 9.999999430E-01 1.022866850E-08 3.646594043E-01
3.500000000E+00 9.999999461E-01 9.128473481E-09 3.542405642E-01
3.600000000E+00 9.999999490E-01 8.244784378E-09 3.444005485E-01
3.700000000E+00 9.999999517E-01 7.474071170E-09 3.350924256E-01
3.800000000E+00 9.999999542E-01 6.884761581E-09 3.262742038E-01
3.900000000E+00 9.999999565E-01 6.262289917E-09 3.179081986E-01
4.000000000E+00 9.999999586E-01 5.750561298E-09 3.099604936E-01
4.100000000E+00 9.999999606E-01 5.222929469E-09 3.024004816E-01
4.200000000E+00 9.999999624E-01 4.792938924E-09 2.952004701E-01
4.300000000E+00 9.999999641E-01 4.394209930E-09 2.883353429E-01
4.400000000E+00 9.999999657E-01 3.970816492E-09 2.817822670E-01
4.500000000E+00 9.999999673E-01 3.737337246E-09 2.755204388E-01
4.600000000E+00 9.999999687E-01 3.408624169E-09 2.695308640E-01
4.700000000E+00 9.999999700E-01 3.115587755E-09 2.637961648E-01
4.800000000E+00 9.999999712E-01 2.883224643E-09 2.583004114E-01
4.900000000E+00 9.999999724E-01 2.715332545E-09 2.530289744E-01
5.000000000E+00 9.999999735E-01 2.481540986E-09 2.479683949E-01
5.100000000E+00 9.999999746E-01 2.313798174E-09 2.431062695E-01
5.200000000E+00 9.999999755E-01 2.146850051E-09 2.384311490E-01
5.300000000E+00 9.999999765E-01 2.014530743E-09 2.339324480E-01
5.400000000E+00 9.999999773E-01 1.866982620E-09 2.296003657E-01
5.500000000E+00 9.999999782E-01 1.767939641E-09 2.254258136E-01
5.600000000E+00 9.999999789E-01 1.631906177E-09 2.214003526E-01
5.700000000E+00 9.999999797E-01 1.537622777E-09 2.175161359E-01
5.800000000E+00 9.999999804E-01 1.485058384E-09 2.137658577E-01
5.900000000E+00 9.999999810E-01 1.435144040E-09 2.101427076E-01
6.000000000E+00 9.999999817E-01 1.263657153E-09 2.066403291E-01
6.100000000E+00 9.999999823E-01 1.187732818E-09 2.032527827E-01
6.200000000E+00 9.999999829E-01 1.131370371E-09 1.999745120E-01
6.300000000E+00 9.999999834E-01 1.095738903E-09 1.968003134E-01
6.400000000E+00 9.999999839E-01 1.061764577E-09 1.937253085E-01
6.500000000E+00 9.999999844E-01 1.029346203E-09 1.907449192E-01
6.600000000E+00 9.999999849E-01 8.871009079E-10 1.878548446E-01
6.700000000E+00 9.999999854E-01 8.384778568E-10 1.850510410E-01
6.800000000E+00 9.999999858E-01 7.929481372E-10 1.823297021E-01
6.900000000E+00 9.999999862E-01 7.502790539E-10 1.796872427E-01
7.000000000E+00 9.999999866E-01 7.102582354E-10 1.771202821E-01
7.100000000E+00 9.999999870E-01 6.850488476E-10 1.746256302E-01
7.200000000E+00 9.999999874E-01 6.661518597E-10 1.722002742E-01
7.300000000E+00 9.999999877E-01 6.480261289E-10 1.698413664E-01
7.400000000E+00 9.999999880E-01 6.306302485E-10 1.675462128E-01
7.500000000E+00 9.999999884E-01 5.495576120E-10 1.653122633E-01
7.600000000E+00 9.999999887E-01 5.228568711E-10 1.631371019E-01
7.700000000E+00 9.999999890E-01 4.976608878E-10 1.610184383E-01
7.800000000E+00 9.999999893E-01 4.738692880E-10 1.589540993E-01
7.900000000E+00 9.999999896E-01 4.513894816E-10 1.569420221E-01
8.000000000E+00 9.999999898E-01 4.301359743E-10 1.549802468E-01
8.100000000E+00 9.999999901E-01 4.191014338E-10 1.530669104E-01
8.200000000E+00 9.999999903E-01 4.089417768E-10 1.512002408E-01
8.300000000E+00 9.999999905E-01 3.991471197E-10 1.493785512E-01
8.400000000E+00 9.999999908E-01 3.897001853E-10 1.476002351E-01
8.500000000E+00 9.999999910E-01 3.805847069E-10 1.458637617E-01
8.600000000E+00 9.999999912E-01 3.283559212E-10 1.441676715E-01
8.700000000E+00 9.999999914E-01 3.142888771E-10 1.425105718E-01
8.800000000E+00 9.999999916E-01 3.009185749E-10 1.408911335E-01
8.900000000E+00 9.999999918E-01 2.882041589E-10 1.393080870E-01
9.000000000E+00 9.999999920E-01 2.761075615E-10 1.377602194E-01
9.100000000E+00 9.999999922E-01 2.645932858E-10 1.362463708E-01
9.200000000E+00 9.999999924E-01 2.586516236E-10 1.347654320E-01
9.300000000E+00 9.999999925E-01 2.531191285E-10 1.333163414E-01
9.400000000E+00 9.999999927E-01 2.477622614E-10 1.318980824E-01
9.500000000E+00 9.999999928E-01 2.425736667E-10 1.305096815E-01
9.600000000E+00 9.999999930E-01 2.375463696E-10 1.291502057E-01
9.700000000E+00 9.999999931E-01 2.083136522E-10 1.278187603E-01
9.800000000E+00 9.999999933E-01 2.003630326E-10 1.265144872E-01
9.900000000E+00 9.999999934E-01 1.927631802E-10 1.252365631E-01
1.000000000E+01 9.999999936E-01 1.854957585E-10 1.239841975E-01
1.010000000E+01 9.999999937E-01 1.785435480E-10 1.227566311E-01
1.020000000E+01 9.999999938E-01 1.718903680E-10 1.215531348E-01
1.030000000E+01 9.999999939E-01 1.655210049E-10 1.203730072E-01
1.040000000E+01 9.999999941E-01 1.614838300E-10 1.192155745E-01
1.050000000E+01 9.999999942E-01 1.584225946E-10 1.180801881E-01
1.060000000E+01 9.999999943E-01 1.554475886E-10 1.169662240E-01
1.070000000E+01 9.999999944E-01 1.525556036E-10 1.158730817E-01
1.080000000E+01 9.999999945E-01 1.497435790E-10 1.148001828E-01
1.090000000E+01 9.999999946E-01 1.337051474E-10 1.137469701E-01
1.100000000E+01 9.999999947E-01 1.291352745E-10 1.127129068E-01
1.110000000E+01 9.999999948E-01 1.247456787E-10 1.116974752E-01
1.120000000E+01 9.999999949E-01 1.205279304E-10 1.107001763E-01
1.130000000E+01 9.999999950E-01 1.164740596E-10 1.097205287E-01
1.140000000E+01 9.999999951E-01 1.125765270E-10 1.087580679E-01
1.150000000E+01 9.999999952E-01 1.088281977E-10 1.078123456E-01
1.160000000E+01 9.999999953E-01 1.065717537E-10 1.068829288E-01
1.170000000E+01 9.999999954E-01 1.047577995E-10 1.059693995E-01
1.180000000E+01 9.999999954E-01 1.029897671E-10 1.050713538E-01
1.190000000E+01 9.999999955E-01 1.012661195E-10 1.041884012E-01
1.200000000E+01 9.999999956E-01 9.259595736E-11 1.033201645E-01
1.210000000E+01 9.999999957E-01 8.970174741E-11 1.024662789E-01
1.220000000E+01 9.999999958E-01 8.691169105E-11 1.016263914E-01
1.230000000E+01 9.999999958E-01 8.422134596E-11 1.008001605E-01
1.240000000E+01 9.999999959E-01 8.175817890E-11 9.998725601E-02
1.250000000E+01 9.999999960E-01 8.045528056E-11 9.918735797E-02
1.260000000E+01 9.999999960E-01 7.918328034E-11 9.840015671E-02
1.270000000E+01 9.999999961E-01 7.453567742E-11 9.762535233E-02
1.280000000E+01 9.999999962E-01 7.233113714E-11 9.686265426E-02
1.290000000E+01 9.999999962E-01 7.020167491E-11 9.611178098E-02
1.300000000E+01 9.999999963E-01 6.862000026E-11 9.537245958E-02
1.310000000E+01 9.999999964E-01 6.757636527E-11 9.464442554E-02
1.320000000E+01 9.999999964E-01 6.430280484E-11 9.392742232E-02
1.330000000E+01 9.999999965E-01 6.247018584E-11 9.322120110E-02
1.340000000E+01 9.999999966E-01 6.107782739E-11 9.252552049E-02
1.350000000E+01 9.999999966E-01 5.900512836E-11 9.184014627E-02
1.360000000E+01 9.999999967E-01 5.736039674E-11 9.116485107E-02
1.370000000E+01 9.999999967E-01 5.636330266E-11 9.049941420E-02
1.380000000E+01 9.999999968E-01 5.426837691E-11 8.984362135E-02
1.390000000E+01 9.999999969E-01 5.314991121E-11 8.919726436E-02
1.400000000E+01 9.999999970E-01 5.452779298E-11 8.856014104E-02
1.410000000E+01 9.999999970E-01 6.928924270E-11 8.793205493E-02
1.420000000E+01 9.999999971E-01 1.222129009E-10 8.731281511E-02
1.430000000E+01 9.999999972E-01 1.896269461E-10 8.670223598E-02
1.440000000E+01 9.999999972E-01 2.789382994E-10 8.610013712E-02
1.450000000E+01 9.999999972E-01 3.027652083E-10 8.550634307E-02
1.460000000E+01 9.999999972E-01 3.099427017E-10 8.492068319E-02
1.470000000E+01 9.999999972E-01 3.040083779E-10 8.434299147E-02
1.480000000E+01 9.999999972E-01 2.967352652E-10 8.377310639E-02
1.490000000E+01 9.999999972E-01 2.917338250E-10 8.321087078E-02
1.500000000E+01 9.999999972E-01 2.830247022E-10 8.265613164E-02
1.510000000E+01 9.999999973E-01 2.771077300E-10 8.210874004E-02
1.520000000E+01 9.999999973E-01 2.734735696E-10 8.156855096E-02
1.530000000E+01 9.999999973E-01 2.636223671E-10 8.103542318E-02
1.540000000E+01 9.999999973E-01 2.580118371E-10 8.050921913E-02
1.550000000E+01 9.999999974E-01 2.546933915E-10 7.998980481E-02
1.560000000E+01 9.999999974E-01 2.458011095E-10 7.947704965E-02
1.570000000E+01 9.999999974E-01 2.401955217E-10 7.897082641E-02
1.580000000E+01 9.999999975E-01 2.366041352E-10 7.847101105E-02
1.590000000E+01 9.999999975E-01 2.336373415E-10 7.797748268E-02
1.600000000E+01 9.999999975E-01 2.242962919E-10 7.749012341E-02
1.610000000E+01 9.999999975E-01 2.192796207E-10 7.700881830E-02
1.620000000E+01 9.999999976E-01 2.150044564E-10 7.653345522E-02
1.630000000E+01 9.999999976E-01 2.123744572E-10 7.606392482E-02
1.640000000E+01 9.999999976E-01 2.097924209E-10 7.560012040E-02
1.650000000E+01 9.999999976E-01 2.007696607E-10 7.514193785E-02
1.660000000E+01 9.999999977E-01 1.964539913E-10 7.468927558E-02
1.670000000E+01 9.999999977E-01 1.922495146E-10 7.424203441E-02
1.680000000E+01 9.999999977E-01 1.890798857E-10 7.380011753E-02
1.690000000E+01 9.999999977E-01 1.868488741E-10 7.336343045E-02
1.700000000E+01 9.999999978E-01 1.846571174E-10 7.293188086E-02
1.710000000E+01 9.999999978E-01 1.766069584E-10 7.250537863E-02
1.720000000E+01 9.999999978E-01 1.729434884E-10 7.208383573E-02
1.730000000E+01 9.999999978E-01 1.698352212E-10 7.166716616E-02
1.740000000E+01 9.999999979E-01 1.678887018E-10 7.125528590E-02
1.750000000E+01 9.999999979E-01 1.659754558E-10 7.084811283E-02
1.760000000E+01 9.999999979E-01 1.591535999E-10 7.044556674E-02
1.770000000E+01 9.999999979E-01 1.559136935E-10 7.004756919E-02
1.780000000E+01 9.999999979E-01 1.527524154E-10 6.965404352E-02
1.790000000E+01 9.999999980E-01 1.508169831E-10 6.926491478E-02
1.800000000E+01 9.999999980E-01 1.491458937E-10 6.888010970E-02
1.810000000E+01 9.999999980E-01 1.437167479E-10 6.849955661E-02
1.820000000E+01 9.999999980E-01 1.408475024E-10 6.812318542E-02
1.830000000E+01 9.999999980E-01 1.380462094E-10 6.775092757E-02
1.840000000E+01 9.999999981E-01 1.364748265E-10 6.738271601E-02
1.850000000E+01 9.999999981E-01 1.350034106E-10 6.701848511E-02
1.860000000E+01 9.999999981E-01 1.300806805E-10 6.665817068E-02
1.870000000E+01 9.999999981E-01 1.275483635E-10 6.630170987E-02
1.880000000E+01 9.999999981E-01 1.254201849E-10 6.594904120E-02
1.890000000E+01 9.999999982E-01 1.240964983E-10 6.560010448E-02
1.900000000E+01 9.999999982E-01 1.203251339E-10 6.525484077E-02
1.910000000E+01 9.999999982E-01 1.180291832E-10 6.491319239E-02
1.920000000E+01 9.999999982E-01 1.165725001E-10 6.457510284E-02
1.930000000E+01 9.999999982E-01 1.153676245E-10 6.424051682E-02
1.940000000E+01 9.999999983E-01 1.141813329E-10 6.390938013E-02
1.950000000E+01 9.999999983E-01 1.093932726E-10 6.358163972E-02
1.960000000E+01 9.999999983E-01 1.073536947E-10 6.325724360E-02
1.970000000E+01 9.999999983E-01 1.053590944E-10 6.293614084E-02
1.980000000E+01 9.999999983E-01 1.042406587E-10 6.261828154E-02
1.990000000E+01 9.999999983E-01 1.031956462E-10 6.230361681E-02
2.000000000E+01 9.999999983E-01 9.965029894E-11 6.199209873E-02
2.010000000E+01 9.999999984E-01 9.782949602E-11 6.168368033E-02
2.020000000E+01 9.999999984E-01 9.651673264E-11 6.137831557E-02
2.030000000E+01 9.999999984E-01 9.556817100E-11 6.107595934E-02
2.040000000E+01 9.999999984E-01 9.264606618E-11 6.077656738E-02
2.050000000E+01 9.999999984E-01 9.099376740E-11 6.048009632E-02
2.060000000E+01 9.999999984E-01 8.937632500E-11 6.018650362E-02
2.070000000E+01 9.999999985E-01 8.792315065E-11 5.989574756E-02
2.080000000E+01 9.999999985E-01 8.707976798E-11 5.960778724E-02
2.090000000E+01 9.999999985E-01 8.624846231E-11 5.932258252E-02
2.100000000E+01 9.999999985E-01 8.325564356E-11 5.904009403E-02
2.110000000E+01 9.999999985E-01 8.180795100E-11 5.876028316E-02
2.120000000E+01 9.999999985E-01 8.038997574E-11 5.848311201E-02
2.130000000E+01 9.999999985E-01 7.930408925E-11 5.820854341E-02
2.140000000E+01 9.999999986E-01 7.856466122E-11 5.793654087E-02
2.150000000E+01 9.999999986E-01 7.783552678E-11 5.766706859E-02
2.160000000E+01 9.999999986E-01 7.504814557E-11 5.740009142E-02
2.170000000E+01 9.999999986E-01 7.378095089E-11 5.713557487E-02
2.180000000E+01 9.999999986E-01 7.275351789E-11 5.687348507E-02
2.190000000E+01 9.999999986E-01 7.209061914E-11 5.661378879E-02
2.200000000E+01 9.999999986E-01 7.143673935E-11 5.635645339E-02
2.210000000E+01 9.999999986E-01 6.897908430E-11 5.610144681E-02
2.220000000E+01 9.999999987E-01 6.783801780E-11 5.584873759E-02
2.230000000E+01 9.999999987E-01 6.671922989E-11 5.559829482E-02
2.240000000E+01 9.999999987E-01 6.592498052E-11 5.535008815E-02
2.250000000E+01 9.999999987E-01 6.534028291E-11 5.510408776E-02
2.260000000E+01 9.999999987E-01 6.476332960E-11 5.486026436E-02
2.270000000E+01 9.999999987E-01 6.245610670E-11 5.461858919E-02
2.280000000E+01 9.999999987E-01 6.144103779E-11 5.437903397E-02
2.290000000E+01 9.999999987E-01 6.044533394E-11 5.414157094E-02
2.300000000E+01 9.999999987E-01 5.980797880E-11 5.390617281E-02
2.310000000E+01 9.999999988E-01 5.929128162E-11 5.367281275E-02
2.320000000E+01 9.999999988E-01 5.878125146E-11 5.344146442E-02
2.330000000E+01 9.999999988E-01 5.665941830E-11 5.321210191E-02
2.340000000E+01 9.999999988E-01 5.575712998E-11 5.298469977E-02
2.350000000E+01 9.999999988E-01 5.487165126E-11 5.275923296E-02
2.360000000E+01 9.999999988E-01 5.405103450E-11 5.253567689E-02
2.370000000E+01 9.999999988E-01 5.359586992E-11 5.231400737E-02
2.380000000E+01 9.999999988E-01 5.314643064E-11 5.209420061E-02
2.390000000E+01 9.999999988E-01 5.270262106E-11 5.187623325E-02
2.400000000E+01 9.999999988E-01 5.226434752E-11 5.166008227E-02
2.410000000E+01 9.999999989E-01 5.183151835E-11 5.144572509E-02
2.420000000E+01 9.999999989E-01 4.917872816E-11 5.123313945E-02
2.430000000E+01 9.999999989E-01 4.842473806E-11 5.102230348E-02
2.440000000E+01 9.999999989E-01 4.768427694E-11 5.081319568E-02
2.450000000E+01 9.999999989E-01 4.695705494E-11 5.060579488E-02
2.460000000E+01 9.999999989E-01 4.624278951E-11 5.040008027E-02
2.470000000E+01 9.999999989E-01 4.563329034E-11 5.019603136E-02
2.480000000E+01 9.999999989E-01 4.526602189E-11 4.999362801E-02
2.490000000E+01 9.999999989E-01 4.490316947E-11 4.979285038E-02
2.500000000E+01 9.999999989E-01 4.454466256E-11 4.959367898E-02
2.510000000E+01 9.999999989E-01 4.419043206E-11 4.939609460E-02
2.520000000E+01 9.999999990E-01 4.384041021E-11 4.920007836E-02
2.530000000E+01 9.999999990E-01 4.349453062E-11 4.900561164E-02
2.540000000E+01 9.999999990E-01 4.315272816E-11 4.881267616E-02
2.550000000E+01 9.999999990E-01 4.044567917E-11 4.862125391E-02
2.560000000E+01 9.999999990E-01 3.985675112E-11 4.843132713E-02
2.570000000E+01 9.999999990E-01 3.927785908E-11 4.824287839E-02
2.580000000E+01 9.999999990E-01 3.870879882E-11 4.805589049E-02
2.590000000E+01 9.999999990E-01 3.814937098E-11 4.787034651E-02
2.600000000E+01 9.999999990E-01 3.759938094E-11 4.768622979E-02
2.610000000E+01 9.999999990E-01 3.705863871E-11 4.750352393E-02
2.620000000E+01 9.999999990E-01 3.652695875E-11 4.732221277E-02
2.630000000E+01 9.999999990E-01 3.602449417E-11 4.714228040E-02
2.640000000E+01 9.999999990E-01 3.575209822E-11 4.696371116E-02
2.650000000E+01 9.999999991E-01 3.548278017E-11 4.678648961E-02
2.660000000E+01 9.999999991E-01 3.521649383E-11 4.661060055E-02
2.670000000E+01 9.999999991E-01 3.495319386E-11 4.643602901E-02
2.680000000E+01 9.999999991E-01 3.469283578E-11 4.626276025E-02
2.690000000E+01 9.999999991E-01 3.443537593E-11 4.609077972E-02
2.700000000E+01 9.999999991E-01 3.418077143E-11 4.592007313E-02
2.710000000E+01 9.999999991E-01 3.392898023E-11 4.575062637E-02
2.720000000E+01 9.999999991E-01 3.367996104E-11 4.558242554E-02
2.730000000E+01 9.999999991E-01 3.343367330E-11 4.541545694E-02
2.740000000E+01 9.999999991E-01 3.319007722E-11 4.524970710E-02
2.750000000E+01 9.999999991E-01 3.049362720E-11 4.508516271E-02
2.760000000E+01 9.999999991E-01 3.008087423E-11 4.492181067E-02
2.770000000E+01 9.999999991E-01 2.967465361E-11 4.475963807E-02
2.780000000E+01 9.999999991E-01 2.927484189E-11 4.459863218E-02
2.790000000E+01 9.999999991E-01 2.888131836E-11 4.443878045E-02
2.800000000E+01 9.999999992E-01 2.849396498E-11 4.428007052E-02
2.810000000E+01 9.999999992E-01 2.811266630E-11 4.412249020E-02
2.820000000E+01 9.999999992E-01 2.773730941E-11 4.396602747E-02
2.830000000E+01 9.999999992E-01 2.736778386E-11 4.381067048E-02
2.840000000E+01 9.999999992E-01 2.700398162E-11 4.365640756E-02
2.850000000E+01 9.999999992E-01 2.664579699E-11 4.350322718E-02
2.860000000E+01 9.999999992E-01 2.629312659E-11 4.335111799E-02
2.870000000E+01 9.999999992E-01 2.595001061E-11 4.320006880E-02
2.880000000E+01 9.999999992E-01 2.577011506E-11 4.305006856E-02
2.890000000E+01 9.999999992E-01 2.559208371E-11 4.290110639E-02
2.900000000E+01 9.999999992E-01 2.541589089E-11 4.275317154E-02
2.910000000E+01 9.999999992E-01 2.524151136E-11 4.260625342E-02
2.920000000E+01 9.999999992E-01 2.506892034E-11 4.246034160E-02
2.930000000E+01 9.999999992E-01 2.489809344E-11 4.231542575E-02
2.940000000E+01 9.999999992E-01 2.472900671E-11 4.217149573E-02
2.950000000E+01 9.999999992E-01 2.456163658E-11 4.202854151E-02
2.960000000E+01 9.999999992E-01 2.439595991E-11 4.188655320E-02
2.970000000E+01 9.999999992E-01 2.423195393E-11 4.174552103E-02
2.980000000E+01 9.999999992E-01 2.406959623E-11 4.160543539E-02
2.990000000E+01 9.999999993E-01 2.390886482E-11 4.146628678E-02
3.000000000E+01 9.999999993E-01 2.374973804E-11 4.132806582E-02
3.010000000E+01 9.999999993E-01 2.168426996E-11 4.119076328E-02
3.020000000E+01 9.999999993E-01 2.141249136E-11 4.105437002E-02
3.030000000E+01 9.999999993E-01 2.114466432E-11 4.091887705E-02
3.040000000E+01 9.999999993E-01 2.088072036E-11 4.078427548E-02
3.050000000E+01 9.999999993E-01 2.062059240E-11 4.065055654E-02
3.060000000E+01 9.999999993E-01 2.036421471E-11 4.051771159E-02
3.070000000E+01 9.999999993E-01 2.011152291E-11 4.038573207E-02
3.080000000E+01 9.999999993E-01 1.986245389E-11 4.025460956E-02
3.090000000E+01 9.999999993E-01 1.961694581E-11 4.012433575E-02
3.100000000E+01 9.999999993E-01 1.937493808E-11 3.999490241E-02
3.110000000E+01 9.999999993E-01 1.913637130E-11 3.986630143E-02
3.120000000E+01 9.999999993E-01 1.890118727E-11 3.973852483E-02
3.130000000E+01 9.999999993E-01 1.866932894E-11 3.961156468E-02
3.140000000E+01 9.999999993E-01 1.844074036E-11 3.948541320E-02
3.150000000E+01 9.999999993E-01 1.825329236E-11 3.936006269E-02
3.160000000E+01 9.999999993E-01 1.813794799E-11 3.923550552E-02
3.170000000E+01 9.999999993E-01 1.802369349E-11 3.911173421E-02
