# 04/03/2022 
# Density retrieved from www.chemicool.com/densities.html 
# Includes the real (n) and complex (k) part of the  refractive index. 
# Element, La  (Z = 57) 
# Nominal density, g cm-3 =  6.16 
#    E [keV]      n       k    Wavelength [nm] 
1.000000000E+00 9.994497977E-01 5.540940598E-04 1.239841975E+00
1.100000000E+00 9.994950957E-01 4.087383447E-04 1.127129068E+00
1.200000000E+00 9.995267812E-01 3.627619075E-04 1.033201645E+00
1.300000000E+00 9.995492550E-01 2.920163545E-04 9.537245958E-01
1.400000000E+00 9.995849558E-01 2.407412007E-04 8.856014104E-01
1.500000000E+00 9.996217205E-01 1.952154557E-04 8.265613164E-01
1.600000000E+00 9.996547020E-01 1.564535081E-04 7.749012341E-01
1.700000000E+00 9.996870592E-01 1.282460859E-04 7.293188086E-01
1.800000000E+00 9.997181138E-01 1.102690370E-04 6.888010970E-01
1.900000000E+00 9.997415629E-01 8.867483668E-05 6.525484077E-01
2.000000000E+00 9.997663492E-01 7.925112193E-05 6.199209873E-01
2.100000000E+00 9.997847301E-01 6.329688603E-05 5.904009403E-01
2.200000000E+00 9.998038437E-01 5.764349418E-05 5.635645339E-01
2.300000000E+00 9.998189096E-01 4.652116908E-05 5.390617281E-01
2.400000000E+00 9.998332790E-01 4.116315404E-05 5.166008227E-01
2.500000000E+00 9.998463500E-01 3.793596276E-05 4.959367898E-01
2.600000000E+00 9.998573427E-01 3.057559411E-05 4.768622979E-01
2.700000000E+00 9.998675900E-01 2.742035143E-05 4.592007313E-01
2.800000000E+00 9.998768789E-01 2.549672984E-05 4.428007052E-01
2.900000000E+00 9.998852706E-01 2.098759739E-05 4.275317154E-01
3.000000000E+00 9.998928080E-01 1.865112953E-05 4.132806582E-01
3.100000000E+00 9.998996262E-01 1.663277046E-05 3.999490241E-01
3.200000000E+00 9.999058015E-01 1.560946524E-05 3.874506171E-01
3.300000000E+00 9.999114240E-01 1.467777081E-05 3.757096893E-01
3.400000000E+00 9.999169568E-01 1.205689394E-05 3.646594043E-01
3.500000000E+00 9.999217451E-01 1.088615843E-05 3.542405642E-01
3.600000000E+00 9.999261309E-01 9.852222028E-06 3.444005485E-01
3.700000000E+00 9.999300698E-01 9.326866142E-06 3.350924256E-01
3.800000000E+00 9.999337020E-01 8.842437499E-06 3.262742038E-01
3.900000000E+00 9.999375920E-01 7.439984871E-06 3.179081986E-01
4.000000000E+00 9.999408254E-01 6.800639028E-06 3.099604936E-01
4.100000000E+00 9.999438145E-01 6.226684653E-06 3.024004816E-01
4.200000000E+00 9.999465005E-01 5.857921875E-06 2.952004701E-01
4.300000000E+00 9.999489599E-01 5.588628549E-06 2.883353429E-01
4.400000000E+00 9.999518189E-01 4.848716535E-06 2.817822670E-01
4.500000000E+00 9.999541227E-01 4.474634043E-06 2.755204388E-01
4.600000000E+00 9.999562561E-01 4.143509038E-06 2.695308640E-01
4.700000000E+00 9.999580977E-01 3.969065244E-06 2.637961648E-01
4.800000000E+00 9.999603995E-01 3.554027629E-06 2.583004114E-01
4.900000000E+00 9.999622500E-01 3.300660421E-06 2.530289744E-01
5.000000000E+00 9.999638167E-01 3.138517494E-06 2.479683949E-01
5.100000000E+00 9.999658848E-01 2.860295389E-06 2.431062695E-01
5.200000000E+00 9.999673377E-01 2.715172391E-06 2.384311490E-01
5.300000000E+00 9.999694064E-01 2.502091500E-06 2.339324480E-01
5.400000000E+00 9.999719904E-01 2.486723774E-06 2.296003657E-01
5.500000000E+00 9.999742585E-01 4.758192505E-06 2.254258136E-01
5.600000000E+00 9.999735819E-01 5.909606167E-06 2.214003526E-01
5.700000000E+00 9.999738661E-01 5.625618361E-06 2.175161359E-01
5.800000000E+00 9.999746081E-01 5.312788008E-06 2.137658577E-01
5.900000000E+00 9.999758717E-01 5.617195739E-06 2.101427076E-01
6.000000000E+00 9.999759626E-01 6.305691447E-06 2.066403291E-01
6.100000000E+00 9.999762124E-01 6.071795690E-06 2.032527827E-01
6.200000000E+00 9.999767135E-01 5.899836768E-06 1.999745120E-01
6.300000000E+00 9.999771858E-01 6.022266072E-06 1.968003134E-01
6.400000000E+00 9.999772810E-01 5.853655097E-06 1.937253085E-01
6.500000000E+00 9.999776154E-01 5.533720219E-06 1.907449192E-01
6.600000000E+00 9.999781747E-01 5.322518036E-06 1.878548446E-01
6.700000000E+00 9.999784786E-01 4.973814687E-06 1.850510410E-01
6.800000000E+00 9.999790349E-01 4.788471587E-06 1.823297021E-01
6.900000000E+00 9.999794045E-01 4.482967959E-06 1.796872427E-01
7.000000000E+00 9.999798550E-01 4.259865938E-06 1.771202821E-01
7.100000000E+00 9.999804166E-01 4.139366593E-06 1.746256302E-01
7.200000000E+00 9.999807695E-01 3.852927181E-06 1.722002742E-01
7.300000000E+00 9.999812343E-01 3.694302825E-06 1.698413664E-01
7.400000000E+00 9.999817381E-01 3.595131438E-06 1.675462128E-01
7.500000000E+00 9.999820676E-01 3.330398507E-06 1.653122633E-01
7.600000000E+00 9.999824943E-01 3.197037978E-06 1.631371019E-01
7.700000000E+00 9.999829461E-01 3.114537251E-06 1.610184383E-01
7.800000000E+00 9.999832729E-01 2.893642837E-06 1.589540993E-01
7.900000000E+00 9.999836573E-01 2.772961906E-06 1.569420221E-01
8.000000000E+00 9.999840633E-01 2.704071133E-06 1.549802468E-01
8.100000000E+00 9.999843837E-01 2.526430004E-06 1.530669104E-01
8.200000000E+00 9.999847316E-01 2.416906266E-06 1.512002408E-01
8.300000000E+00 9.999850834E-01 2.337196757E-06 1.493785512E-01
8.400000000E+00 9.999854365E-01 2.281880451E-06 1.476002351E-01
8.500000000E+00 9.999857214E-01 2.122670373E-06 1.458637617E-01
8.600000000E+00 9.999860320E-01 2.036409538E-06 1.441676715E-01
8.700000000E+00 9.999863512E-01 1.989864572E-06 1.425105718E-01
8.800000000E+00 9.999866272E-01 1.872358556E-06 1.408911335E-01
8.900000000E+00 9.999869111E-01 1.797149087E-06 1.393080870E-01
9.000000000E+00 9.999871994E-01 1.755305821E-06 1.377602194E-01
9.100000000E+00 9.999874563E-01 1.657853517E-06 1.362463708E-01
9.200000000E+00 9.999877222E-01 1.608176208E-06 1.347654320E-01
9.300000000E+00 9.999879848E-01 1.573777712E-06 1.333163414E-01
9.400000000E+00 9.999882160E-01 1.473452043E-06 1.318980824E-01
9.500000000E+00 9.999884571E-01 1.426036658E-06 1.305096815E-01
9.600000000E+00 9.999886964E-01 1.396482296E-06 1.291502057E-01
9.700000000E+00 9.999889130E-01 1.314785014E-06 1.278187603E-01
9.800000000E+00 9.999891338E-01 1.273179213E-06 1.265144872E-01
9.900000000E+00 9.999893522E-01 1.247588324E-06 1.252365631E-01
1.000000000E+01 9.999895525E-01 1.177264922E-06 1.239841975E-01
1.010000000E+01 9.999897560E-01 1.144795263E-06 1.227566311E-01
1.020000000E+01 9.999899559E-01 1.122458332E-06 1.215531348E-01
1.030000000E+01 9.999901400E-01 1.057429793E-06 1.203730072E-01
1.040000000E+01 9.999903252E-01 1.021966025E-06 1.192155745E-01
1.050000000E+01 9.999905086E-01 1.002592700E-06 1.180801881E-01
1.060000000E+01 9.999906808E-01 9.522868289E-07 1.169662240E-01
1.070000000E+01 9.999908528E-01 9.271834833E-07 1.158730817E-01
1.080000000E+01 9.999910179E-01 8.891447562E-07 1.148001828E-01
1.090000000E+01 9.999911807E-01 8.654190463E-07 1.137469701E-01
1.100000000E+01 9.999913380E-01 8.313035359E-07 1.127129068E-01
1.110000000E+01 9.999914918E-01 8.041395804E-07 1.116974752E-01
1.120000000E+01 9.999916424E-01 7.850221479E-07 1.107001763E-01
1.130000000E+01 9.999917877E-01 7.531634547E-07 1.097205287E-01
1.140000000E+01 9.999919300E-01 7.291513041E-07 1.087580679E-01
1.150000000E+01 9.999920687E-01 7.060871252E-07 1.078123456E-01
1.160000000E+01 9.999922048E-01 6.930124447E-07 1.068829288E-01
1.170000000E+01 9.999923363E-01 6.634120570E-07 1.059693995E-01
1.180000000E+01 9.999924650E-01 6.425377683E-07 1.050713538E-01
1.190000000E+01 9.999925907E-01 6.225941387E-07 1.041884012E-01
1.200000000E+01 9.999927133E-01 6.037203270E-07 1.033201645E-01
1.210000000E+01 9.999928330E-01 5.856384053E-07 1.024662789E-01
1.220000000E+01 9.999929499E-01 5.723622635E-07 1.016263914E-01
1.230000000E+01 9.999930637E-01 5.512851611E-07 1.008001605E-01
1.240000000E+01 9.999931751E-01 5.366867563E-07 9.998725601E-02
1.250000000E+01 9.999932839E-01 5.195227381E-07 9.918735797E-02
1.260000000E+01 9.999933901E-01 5.088171203E-07 9.840015671E-02
1.270000000E+01 9.999934938E-01 4.901087192E-07 9.762535233E-02
1.280000000E+01 9.999935951E-01 4.799392162E-07 9.686265426E-02
1.290000000E+01 9.999936941E-01 4.626748271E-07 9.611178098E-02
1.300000000E+01 9.999937909E-01 4.496796318E-07 9.537245958E-02
1.310000000E+01 9.999938854E-01 4.398385116E-07 9.464442554E-02
1.320000000E+01 9.999939780E-01 4.249715837E-07 9.392742232E-02
1.330000000E+01 9.999940685E-01 4.132256494E-07 9.322120110E-02
1.340000000E+01 9.999941570E-01 4.019353545E-07 9.252552049E-02
1.350000000E+01 9.999942433E-01 3.953700903E-07 9.184014627E-02
1.360000000E+01 9.999943276E-01 3.895772002E-07 9.116485107E-02
1.370000000E+01 9.999944112E-01 3.703926579E-07 9.049941420E-02
1.380000000E+01 9.999944922E-01 3.605377228E-07 8.984362135E-02
1.390000000E+01 9.999945713E-01 3.538746061E-07 8.919726436E-02
1.400000000E+01 9.999946486E-01 3.488373095E-07 8.856014104E-02
1.410000000E+01 9.999947252E-01 3.329306541E-07 8.793205493E-02
1.420000000E+01 9.999947996E-01 3.242948842E-07 8.731281511E-02
1.430000000E+01 9.999948724E-01 3.163284323E-07 8.670223598E-02
1.440000000E+01 9.999949434E-01 3.119502369E-07 8.610013712E-02
1.450000000E+01 9.999950139E-01 3.000433111E-07 8.550634307E-02
1.460000000E+01 9.999950824E-01 2.924550208E-07 8.492068319E-02
1.470000000E+01 9.999951495E-01 2.850916104E-07 8.434299147E-02
1.480000000E+01 9.999952149E-01 2.809426656E-07 8.377310639E-02
1.490000000E+01 9.999952789E-01 2.771842777E-07 8.321087078E-02
1.500000000E+01 9.999953416E-01 2.735008066E-07 8.265613164E-02
1.510000000E+01 9.999954031E-01 2.698902745E-07 8.210874004E-02
1.520000000E+01 9.999954659E-01 2.518508423E-07 8.156855096E-02
1.530000000E+01 9.999955254E-01 2.457655962E-07 8.103542318E-02
1.540000000E+01 9.999955838E-01 2.398525984E-07 8.050921913E-02
1.550000000E+01 9.999956410E-01 2.341060358E-07 7.998980481E-02
1.560000000E+01 9.999956971E-01 2.287233192E-07 7.947704965E-02
1.570000000E+01 9.999957518E-01 2.258189255E-07 7.897082641E-02
1.580000000E+01 9.999958054E-01 2.229695039E-07 7.847101105E-02
1.590000000E+01 9.999958580E-01 2.201736757E-07 7.797748268E-02
1.600000000E+01 9.999959096E-01 2.174301053E-07 7.749012341E-02
1.610000000E+01 9.999959602E-01 2.147374984E-07 7.700881830E-02
1.620000000E+01 9.999960129E-01 1.987264014E-07 7.653345522E-02
1.630000000E+01 9.999960621E-01 1.942175789E-07 7.606392482E-02
1.640000000E+01 9.999961105E-01 1.898286478E-07 7.560012040E-02
1.650000000E+01 9.999961579E-01 1.855558054E-07 7.514193785E-02
1.660000000E+01 9.999962045E-01 1.813953907E-07 7.468927558E-02
1.670000000E+01 9.999962502E-01 1.773438775E-07 7.424203441E-02
1.680000000E+01 9.999962948E-01 1.749157787E-07 7.380011753E-02
1.690000000E+01 9.999963385E-01 1.728518938E-07 7.336343045E-02
1.700000000E+01 9.999963815E-01 1.708243231E-07 7.293188086E-02
1.710000000E+01 9.999964237E-01 1.688322198E-07 7.250537863E-02
1.720000000E+01 9.999964651E-01 1.668747613E-07 7.208383573E-02
1.730000000E+01 9.999965059E-01 1.649511490E-07 7.166716616E-02
1.740000000E+01 9.999965459E-01 1.630606070E-07 7.125528590E-02
1.750000000E+01 9.999965853E-01 1.612023817E-07 7.084811283E-02
1.760000000E+01 9.999966240E-01 1.593757405E-07 7.044556674E-02
1.770000000E+01 9.999966620E-01 1.575799718E-07 7.004756919E-02
1.780000000E+01 9.999966994E-01 1.558143839E-07 6.965404352E-02
1.790000000E+01 9.999967417E-01 1.371127960E-07 6.926491478E-02
1.800000000E+01 9.999967782E-01 1.342758655E-07 6.888010970E-02
1.810000000E+01 9.999968141E-01 1.315074856E-07 6.849955661E-02
1.820000000E+01 9.999968494E-01 1.288056816E-07 6.812318542E-02
1.830000000E+01 9.999968842E-01 1.261685456E-07 6.775092757E-02
1.840000000E+01 9.999969183E-01 1.235942337E-07 6.738271601E-02
1.850000000E+01 9.999969519E-01 1.210809633E-07 6.701848511E-02
1.860000000E+01 9.999969850E-01 1.186270113E-07 6.665817068E-02
1.870000000E+01 9.999970175E-01 1.162307115E-07 6.630170987E-02
1.880000000E+01 9.999970495E-01 1.138904521E-07 6.594904120E-02
1.890000000E+01 9.999970810E-01 1.116046746E-07 6.560010448E-02
1.900000000E+01 9.999971120E-01 1.093718707E-07 6.525484077E-02
1.910000000E+01 9.999971423E-01 1.078632074E-07 6.491319239E-02
1.920000000E+01 9.999971720E-01 1.067425583E-07 6.457510284E-02
1.930000000E+01 9.999972012E-01 1.056392834E-07 6.424051682E-02
1.940000000E+01 9.999972300E-01 1.045530255E-07 6.390938013E-02
1.950000000E+01 9.999972583E-01 1.034834364E-07 6.358163972E-02
1.960000000E+01 9.999972862E-01 1.024301767E-07 6.325724360E-02
1.970000000E+01 9.999973137E-01 1.013929158E-07 6.293614084E-02
1.980000000E+01 9.999973408E-01 1.003713312E-07 6.261828154E-02
1.990000000E+01 9.999973674E-01 9.936510868E-08 6.230361681E-02
2.000000000E+01 9.999973937E-01 9.837394172E-08 6.199209873E-02
2.010000000E+01 9.999974195E-01 9.739753147E-08 6.168368033E-02
2.020000000E+01 9.999974450E-01 9.643558644E-08 6.137831557E-02
2.030000000E+01 9.999974747E-01 8.551414820E-08 6.107595934E-02
2.040000000E+01 9.999974998E-01 8.394925786E-08 6.077656738E-02
2.050000000E+01 9.999975244E-01 8.241779665E-08 6.048009632E-02
2.060000000E+01 9.999975487E-01 8.091891301E-08 6.018650362E-02
2.070000000E+01 9.999975727E-01 7.945178079E-08 5.989574756E-02
2.080000000E+01 9.999975963E-01 7.801559839E-08 5.960778724E-02
2.090000000E+01 9.999976195E-01 7.660958791E-08 5.932258252E-02
2.100000000E+01 9.999976424E-01 7.523299434E-08 5.904009403E-02
2.110000000E+01 9.999976650E-01 7.388508481E-08 5.876028316E-02
2.120000000E+01 9.999976873E-01 7.256514781E-08 5.848311201E-02
2.130000000E+01 9.999977092E-01 7.127249251E-08 5.820854341E-02
2.140000000E+01 9.999977309E-01 7.000644802E-08 5.793654087E-02
2.150000000E+01 9.999977522E-01 6.876636280E-08 5.766706859E-02
2.160000000E+01 9.999977732E-01 6.755160395E-08 5.740009142E-02
2.170000000E+01 9.999977939E-01 6.650820279E-08 5.713557487E-02
2.180000000E+01 9.999978141E-01 6.589943525E-08 5.687348507E-02
2.190000000E+01 9.999978340E-01 6.529898795E-08 5.661378879E-02
2.200000000E+01 9.999978536E-01 6.470670994E-08 5.635645339E-02
2.210000000E+01 9.999978730E-01 6.412245370E-08 5.610144681E-02
2.220000000E+01 9.999978921E-01 6.354607501E-08 5.584873759E-02
2.230000000E+01 9.999979110E-01 6.297743291E-08 5.559829482E-02
2.240000000E+01 9.999979296E-01 6.241638953E-08 5.535008815E-02
2.250000000E+01 9.999979480E-01 6.186281009E-08 5.510408776E-02
2.260000000E+01 9.999979661E-01 6.131656279E-08 5.486026436E-02
2.270000000E+01 9.999979840E-01 6.077751870E-08 5.461858919E-02
2.280000000E+01 9.999980016E-01 6.024555173E-08 5.437903397E-02
2.290000000E+01 9.999980190E-01 5.972053853E-08 5.414157094E-02
2.300000000E+01 9.999980362E-01 5.920235843E-08 5.390617281E-02
2.310000000E+01 9.999980571E-01 5.255728471E-08 5.367281275E-02
2.320000000E+01 9.999980740E-01 5.170676305E-08 5.344146442E-02
2.330000000E+01 9.999980908E-01 5.087226570E-08 5.321210191E-02
2.340000000E+01 9.999981073E-01 5.005343274E-08 5.298469977E-02
2.350000000E+01 9.999981236E-01 4.924991375E-08 5.275923296E-02
2.360000000E+01 9.999981397E-01 4.846136747E-08 5.253567689E-02
2.370000000E+01 9.999981556E-01 4.768746158E-08 5.231400737E-02
2.380000000E+01 9.999981713E-01 4.692787236E-08 5.209420061E-02
2.390000000E+01 9.999981868E-01 4.618228452E-08 5.187623325E-02
2.400000000E+01 9.999982021E-01 4.545039087E-08 5.166008227E-02
2.410000000E+01 9.999982172E-01 4.473189211E-08 5.144572509E-02
2.420000000E+01 9.999982321E-01 4.402649661E-08 5.123313945E-02
2.430000000E+01 9.999982468E-01 4.333392019E-08 5.102230348E-02
2.440000000E+01 9.999982614E-01 4.265388585E-08 5.081319568E-02
2.450000000E+01 9.999982757E-01 4.198612362E-08 5.060579488E-02
2.460000000E+01 9.999982899E-01 4.135224134E-08 5.040008027E-02
2.470000000E+01 9.999983037E-01 4.101808318E-08 5.019603136E-02
2.480000000E+01 9.999983174E-01 4.068795911E-08 4.999362801E-02
2.490000000E+01 9.999983309E-01 4.036180444E-08 4.979285038E-02
2.500000000E+01 9.999983442E-01 4.003955579E-08 4.959367898E-02
2.510000000E+01 9.999983574E-01 3.972115104E-08 4.939609460E-02
2.520000000E+01 9.999983704E-01 3.940652930E-08 4.920007836E-02
2.530000000E+01 9.999983832E-01 3.909563088E-08 4.900561164E-02
2.540000000E+01 9.999983959E-01 3.878839725E-08 4.881267616E-02
2.550000000E+01 9.999984085E-01 3.848477104E-08 4.862125391E-02
2.560000000E+01 9.999984209E-01 3.818469600E-08 4.843132713E-02
2.570000000E+01 9.999984332E-01 3.788811696E-08 4.824287839E-02
2.580000000E+01 9.999984453E-01 3.759497982E-08 4.805589049E-02
2.590000000E+01 9.999984573E-01 3.730523154E-08 4.787034651E-02
2.600000000E+01 9.999984691E-01 3.701882007E-08 4.768622979E-02
2.610000000E+01 9.999984808E-01 3.673569438E-08 4.750352393E-02
2.620000000E+01 9.999984960E-01 3.264248056E-08 4.732221277E-02
2.630000000E+01 9.999985076E-01 3.217450714E-08 4.714228040E-02
2.640000000E+01 9.999985191E-01 3.171432975E-08 4.696371116E-02
2.650000000E+01 9.999985304E-01 3.126179361E-08 4.678648961E-02
2.660000000E+01 9.999985417E-01 3.081674750E-08 4.661060055E-02
2.670000000E+01 9.999985528E-01 3.037904374E-08 4.643602901E-02
2.680000000E+01 9.999985637E-01 2.994853806E-08 4.626276025E-02
2.690000000E+01 9.999985746E-01 2.952508948E-08 4.609077972E-02
2.700000000E+01 9.999985853E-01 2.910856029E-08 4.592007313E-02
2.710000000E+01 9.999985959E-01 2.869881592E-08 4.575062637E-02
2.720000000E+01 9.999986064E-01 2.829572485E-08 4.558242554E-02
2.730000000E+01 9.999986168E-01 2.789915856E-08 4.541545694E-02
2.740000000E+01 9.999986270E-01 2.750899144E-08 4.524970710E-02
2.750000000E+01 9.999986372E-01 2.712510070E-08 4.508516271E-02
2.760000000E+01 9.999986472E-01 2.674736631E-08 4.492181067E-02
2.770000000E+01 9.999986571E-01 2.637567094E-08 4.475963807E-02
2.780000000E+01 9.999986669E-01 2.600989988E-08 4.459863218E-02
2.790000000E+01 9.999986766E-01 2.564994094E-08 4.443878045E-02
2.800000000E+01 9.999986861E-01 2.540068148E-08 4.428007052E-02
2.810000000E+01 9.999986955E-01 2.522021540E-08 4.412249020E-02
2.820000000E+01 9.999987047E-01 2.504166576E-08 4.396602747E-02
2.830000000E+01 9.999987138E-01 2.486500553E-08 4.381067048E-02
2.840000000E+01 9.999987229E-01 2.469020814E-08 4.365640756E-02
2.850000000E+01 9.999987318E-01 2.451724750E-08 4.350322718E-02
2.860000000E+01 9.999987407E-01 2.434609795E-08 4.335111799E-02
2.870000000E+01 9.999987494E-01 2.417673431E-08 4.320006880E-02
2.880000000E+01 9.999987581E-01 2.400913180E-08 4.305006856E-02
2.890000000E+01 9.999987667E-01 2.384326610E-08 4.290110639E-02
2.900000000E+01 9.999987752E-01 2.367911330E-08 4.275317154E-02
2.910000000E+01 9.999987836E-01 2.351664988E-08 4.260625342E-02
2.920000000E+01 9.999987919E-01 2.335585274E-08 4.246034160E-02
2.930000000E+01 9.999988001E-01 2.319669918E-08 4.231542575E-02
2.940000000E+01 9.999988083E-01 2.303916688E-08 4.217149573E-02
2.950000000E+01 9.999988163E-01 2.288323388E-08 4.202854151E-02
2.960000000E+01 9.999988243E-01 2.272887861E-08 4.188655320E-02
2.970000000E+01 9.999988359E-01 2.027518513E-08 4.174552103E-02
2.980000000E+01 9.999988439E-01 2.001768630E-08 4.160543539E-02
2.990000000E+01 9.999988518E-01 1.976398122E-08 4.146628678E-02
3.000000000E+01 9.999988596E-01 1.951400329E-08 4.132806582E-02
3.010000000E+01 9.999988673E-01 1.926768726E-08 4.119076328E-02
3.020000000E+01 9.999988750E-01 1.902496923E-08 4.105437002E-02
3.030000000E+01 9.999988826E-01 1.878578660E-08 4.091887705E-02
3.040000000E+01 9.999988901E-01 1.855007807E-08 4.078427548E-02
3.050000000E+01 9.999988976E-01 1.831778354E-08 4.065055654E-02
3.060000000E+01 9.999989049E-01 1.808884418E-08 4.051771159E-02
3.070000000E+01 9.999989122E-01 1.786320231E-08 4.038573207E-02
3.080000000E+01 9.999989194E-01 1.764080143E-08 4.025460956E-02
3.090000000E+01 9.999989266E-01 1.742158617E-08 4.012433575E-02
3.100000000E+01 9.999989337E-01 1.720550226E-08 3.999490241E-02
3.110000000E+01 9.999989407E-01 1.699249653E-08 3.986630143E-02
3.120000000E+01 9.999989476E-01 1.678251684E-08 3.973852483E-02
3.130000000E+01 9.999989545E-01 1.657551212E-08 3.961156468E-02
3.140000000E+01 9.999989613E-01 1.637143228E-08 3.948541320E-02
3.150000000E+01 9.999989680E-01 1.617022824E-08 3.936006269E-02
3.160000000E+01 9.999989747E-01 1.600644206E-08 3.923550552E-02
3.170000000E+01 9.999989811E-01 1.590561433E-08 3.911173421E-02
