# 04/03/2022 
# Density retrieved from www.chemicool.com/densities.html 
# Includes the real (n) and complex (k) part of the  refractive index. 
# Element, Li  (Z = 3) 
# Nominal density, g cm-3 =  0.53 
#    E [keV]      n       k    Wavelength [nm] 
1.000000000E+00 9.999029443E-01 1.343777218E-06 1.239841975E+00
1.100000000E+00 9.999200412E-01 8.785270802E-07 1.127129068E+00
1.200000000E+00 9.999329826E-01 5.925923088E-07 1.033201645E+00
1.300000000E+00 9.999430039E-01 4.183221442E-07 9.537245958E-01
1.400000000E+00 9.999509235E-01 3.086755194E-07 8.856014104E-01
1.500000000E+00 9.999572838E-01 2.426903494E-07 8.265613164E-01
1.600000000E+00 9.999625069E-01 1.774583684E-07 7.749012341E-01
1.700000000E+00 9.999667967E-01 1.511116306E-07 7.293188086E-01
1.800000000E+00 9.999704228E-01 1.085760182E-07 6.888010970E-01
1.900000000E+00 9.999734710E-01 8.681937710E-08 6.525484077E-01
2.000000000E+00 9.999760703E-01 7.027104386E-08 6.199209873E-01
2.100000000E+00 9.999783062E-01 5.710499151E-08 5.904009403E-01
2.200000000E+00 9.999802423E-01 4.682945855E-08 5.635645339E-01
2.300000000E+00 9.999819231E-01 4.276983515E-08 5.390617281E-01
2.400000000E+00 9.999834101E-01 3.254206999E-08 5.166008227E-01
2.500000000E+00 9.999847118E-01 2.939361442E-08 4.959367898E-01
2.600000000E+00 9.999858725E-01 2.324169366E-08 4.768622979E-01
2.700000000E+00 9.999869023E-01 2.010354917E-08 4.592007313E-01
2.800000000E+00 9.999878211E-01 1.869322365E-08 4.428007052E-01
2.900000000E+00 9.999886520E-01 1.463626799E-08 4.275317154E-01
3.000000000E+00 9.999893974E-01 1.295397353E-08 4.132806582E-01
3.100000000E+00 9.999900704E-01 1.213171298E-08 3.999490241E-01
3.200000000E+00 9.999906849E-01 9.642600451E-09 3.874506171E-01
3.300000000E+00 9.999912422E-01 8.445697469E-09 3.757096893E-01
3.400000000E+00 9.999917498E-01 7.956197702E-09 3.646594043E-01
3.500000000E+00 9.999922165E-01 6.583589544E-09 3.542405642E-01
3.600000000E+00 9.999926438E-01 5.827157736E-09 3.444005485E-01
3.700000000E+00 9.999930363E-01 5.391806713E-09 3.350924256E-01
3.800000000E+00 9.999933980E-01 5.111761351E-09 3.262742038E-01
3.900000000E+00 9.999937339E-01 4.151357597E-09 3.179081986E-01
4.000000000E+00 9.999940438E-01 3.718082835E-09 3.099604936E-01
4.100000000E+00 9.999943310E-01 3.464005585E-09 3.024004816E-01
4.200000000E+00 9.999945977E-01 3.301016660E-09 2.952004701E-01
4.300000000E+00 9.999948470E-01 2.734196584E-09 2.883353429E-01
4.400000000E+00 9.999950789E-01 2.473770838E-09 2.817822670E-01
4.500000000E+00 9.999952954E-01 2.280115260E-09 2.755204388E-01
4.600000000E+00 9.999954978E-01 2.182057373E-09 2.695308640E-01
4.700000000E+00 9.999956879E-01 1.867747809E-09 2.637961648E-01
4.800000000E+00 9.999958659E-01 1.705517623E-09 2.583004114E-01
4.900000000E+00 9.999960331E-01 1.558177538E-09 2.530289744E-01
5.000000000E+00 9.999961903E-01 1.457414778E-09 2.479683949E-01
5.100000000E+00 9.999963382E-01 1.400821586E-09 2.431062695E-01
5.200000000E+00 9.999964781E-01 1.209302380E-09 2.384311490E-01
5.300000000E+00 9.999966099E-01 1.113671117E-09 2.339324480E-01
5.400000000E+00 9.999967344E-01 1.026027794E-09 2.296003657E-01
5.500000000E+00 9.999968521E-01 9.641261870E-10 2.254258136E-01
5.600000000E+00 9.999969636E-01 9.300005471E-10 2.214003526E-01
5.700000000E+00 9.999970694E-01 8.141133629E-10 2.175161359E-01
5.800000000E+00 9.999971697E-01 7.550521411E-10 2.137658577E-01
5.900000000E+00 9.999972649E-01 7.005164632E-10 2.101427076E-01
6.000000000E+00 9.999973553E-01 6.601947031E-10 2.066403291E-01
6.100000000E+00 9.999974413E-01 6.387263991E-10 2.032527827E-01
6.200000000E+00 9.999975232E-01 6.182884836E-10 1.999745120E-01
6.300000000E+00 9.999976014E-01 5.286746078E-10 1.968003134E-01
6.400000000E+00 9.999976759E-01 4.935155718E-10 1.937253085E-01
6.500000000E+00 9.999977469E-01 4.608130813E-10 1.907449192E-01
6.600000000E+00 9.999978146E-01 4.402145889E-10 1.878548446E-01
6.700000000E+00 9.999978794E-01 4.271719200E-10 1.850510410E-01
6.800000000E+00 9.999979413E-01 4.147004215E-10 1.823297021E-01
6.900000000E+00 9.999980007E-01 3.571377755E-10 1.796872427E-01
7.000000000E+00 9.999980574E-01 3.354915611E-10 1.771202821E-01
7.100000000E+00 9.999981118E-01 3.152298683E-10 1.746256302E-01
7.200000000E+00 9.999981639E-01 2.962504001E-10 1.722002742E-01
7.300000000E+00 9.999982139E-01 2.843243169E-10 1.698413664E-01
7.400000000E+00 9.999982618E-01 2.766917978E-10 1.675462128E-01
7.500000000E+00 9.999983079E-01 2.693625395E-10 1.653122633E-01
7.600000000E+00 9.999983521E-01 2.623206864E-10 1.631371019E-01
7.700000000E+00 9.999983948E-01 2.220597626E-10 1.610184383E-01
7.800000000E+00 9.999984357E-01 2.098257249E-10 1.589540993E-01
7.900000000E+00 9.999984751E-01 1.982983601E-10 1.569420221E-01
8.000000000E+00 9.999985130E-01 1.874305331E-10 1.549802468E-01
8.100000000E+00 9.999985495E-01 1.826057508E-10 1.530669104E-01
8.200000000E+00 9.999985846E-01 1.781791093E-10 1.512002408E-01
8.300000000E+00 9.999986185E-01 1.739115011E-10 1.493785512E-01
8.400000000E+00 9.999986513E-01 1.520678471E-10 1.476002351E-01
8.500000000E+00 9.999986828E-01 1.443946461E-10 1.458637617E-01
8.600000000E+00 9.999987133E-01 1.371286535E-10 1.441676715E-01
8.700000000E+00 9.999987427E-01 1.302448792E-10 1.425105718E-01
8.800000000E+00 9.999987711E-01 1.266041362E-10 1.408911335E-01
8.900000000E+00 9.999987986E-01 1.237750828E-10 1.393080870E-01
9.000000000E+00 9.999988252E-01 1.210398063E-10 1.377602194E-01
9.100000000E+00 9.999988509E-01 1.073950438E-10 1.362463708E-01
9.200000000E+00 9.999988757E-01 1.023940619E-10 1.347654320E-01
9.300000000E+00 9.999988998E-01 9.763856603E-11 1.333163414E-01
9.400000000E+00 9.999989231E-01 9.311460467E-11 1.318980824E-01
9.500000000E+00 9.999989456E-01 9.032933468E-11 1.305096815E-01
9.600000000E+00 9.999989675E-01 8.845727490E-11 1.291502057E-01
9.700000000E+00 9.999989887E-01 8.664281491E-11 1.278187603E-01
9.800000000E+00 9.999990092E-01 8.488361573E-11 1.265144872E-01
9.900000000E+00 9.999990291E-01 7.449894463E-11 1.252365631E-01
1.000000000E+01 9.999990485E-01 7.128970462E-11 1.239841975E-01
1.010000000E+01 9.999990672E-01 6.822584640E-11 1.227566311E-01
1.020000000E+01 9.999990854E-01 6.529974417E-11 1.215531348E-01
1.030000000E+01 9.999991031E-01 6.346779991E-11 1.203730072E-01
1.040000000E+01 9.999991203E-01 6.225313325E-11 1.192155745E-01
1.050000000E+01 9.999991370E-01 6.107300583E-11 1.180801881E-01
1.060000000E+01 9.999991532E-01 5.992612044E-11 1.169662240E-01
1.070000000E+01 9.999991689E-01 5.310223785E-11 1.158730817E-01
1.080000000E+01 9.999991843E-01 5.097633009E-11 1.148001828E-01
1.090000000E+01 9.999991992E-01 4.893980344E-11 1.137469701E-01
1.100000000E+01 9.999992137E-01 4.698830554E-11 1.127129068E-01
1.110000000E+01 9.999992278E-01 4.570565310E-11 1.116974752E-01
1.120000000E+01 9.999992415E-01 4.489312435E-11 1.107001763E-01
1.130000000E+01 9.999992549E-01 4.410207157E-11 1.097205287E-01
1.140000000E+01 9.999992679E-01 4.333174453E-11 1.087580679E-01
1.150000000E+01 9.999992806E-01 3.876509250E-11 1.078123456E-01
1.160000000E+01 9.999992929E-01 3.731902994E-11 1.068829288E-01
1.170000000E+01 9.999993050E-01 3.592964659E-11 1.059693995E-01
1.180000000E+01 9.999993167E-01 3.459436796E-11 1.050713538E-01
1.190000000E+01 9.999993281E-01 3.348578744E-11 1.041884012E-01
1.200000000E+01 9.999993393E-01 3.293001639E-11 1.033201645E-01
1.210000000E+01 9.999993502E-01 3.238796776E-11 1.024662789E-01
1.220000000E+01 9.999993608E-01 3.185919350E-11 1.016263914E-01
1.230000000E+01 9.999993711E-01 2.889889420E-11 1.008001605E-01
1.240000000E+01 9.999993812E-01 2.789271294E-11 9.998725601E-02
1.250000000E+01 9.999993911E-01 2.692343464E-11 9.918735797E-02
1.260000000E+01 9.999994007E-01 2.598948930E-11 9.840015671E-02
1.270000000E+01 9.999994101E-01 2.515869242E-11 9.762535233E-02
1.280000000E+01 9.999994193E-01 2.476712341E-11 9.686265426E-02
1.290000000E+01 9.999994283E-01 2.438462532E-11 9.611178098E-02
1.300000000E+01 9.999994370E-01 2.401092012E-11 9.537245958E-02
1.310000000E+01 9.999994456E-01 2.193903175E-11 9.464442554E-02
1.320000000E+01 9.999994540E-01 2.121783168E-11 9.392742232E-02
1.330000000E+01 9.999994622E-01 2.052153732E-11 9.322120110E-02
1.340000000E+01 9.999994702E-01 1.988068827E-11 9.252552049E-02
1.350000000E+01 9.999994780E-01 1.958725040E-11 9.184014627E-02
1.360000000E+01 9.999994856E-01 1.930026160E-11 9.116485107E-02
1.370000000E+01 9.999994931E-01 1.901953426E-11 9.049941420E-02
1.380000000E+01 9.999995004E-01 1.748065940E-11 8.984362135E-02
1.390000000E+01 9.999995076E-01 1.693626824E-11 8.919726436E-02
1.400000000E+01 9.999995146E-01 1.640972887E-11 8.856014104E-02
1.410000000E+01 9.999995215E-01 1.602506121E-11 8.793205493E-02
1.420000000E+01 9.999995282E-01 1.580015086E-11 8.731281511E-02
1.430000000E+01 9.999995348E-01 1.557994239E-11 8.670223598E-02
1.440000000E+01 9.999995412E-01 1.451380443E-11 8.610013712E-02
1.450000000E+01 9.999995475E-01 1.407871939E-11 8.550634307E-02
1.460000000E+01 9.999995537E-01 1.369015823E-11 8.492068319E-02
1.470000000E+01 9.999995597E-01 1.350453111E-11 8.434299147E-02
1.480000000E+01 9.999995657E-01 1.287102644E-11 8.377310639E-02
1.490000000E+01 9.999995715E-01 1.261692796E-11 8.321087078E-02
1.500000000E+01 9.999995772E-01 1.244926301E-11 8.265613164E-02
1.510000000E+01 9.999995828E-01 1.178958347E-11 8.210874004E-02
1.520000000E+01 9.999995882E-01 1.150303049E-11 8.156855096E-02
1.530000000E+01 9.999995936E-01 1.135315547E-11 8.103542318E-02
1.540000000E+01 9.999995989E-01 1.081344239E-11 8.050921913E-02
1.550000000E+01 9.999996040E-01 1.058130272E-11 7.998980481E-02
1.560000000E+01 9.999996091E-01 1.044607979E-11 7.947704965E-02
1.570000000E+01 9.999996140E-01 9.937382747E-12 7.897082641E-02
1.580000000E+01 9.999996189E-01 9.673391762E-12 7.847101105E-02
1.590000000E+01 9.999996237E-01 9.552096513E-12 7.797748268E-02
1.600000000E+01 9.999996284E-01 9.145564690E-12 7.749012341E-02
1.610000000E+01 9.999996330E-01 8.916889960E-12 7.700881830E-02
1.620000000E+01 9.999996375E-01 8.807144667E-12 7.653345522E-02
1.630000000E+01 9.999996419E-01 8.699413024E-12 7.606392482E-02
1.640000000E+01 9.999996463E-01 8.211309962E-12 7.560012040E-02
1.650000000E+01 9.999996506E-01 7.994942303E-12 7.514193785E-02
1.660000000E+01 9.999996548E-01 7.784570998E-12 7.468927558E-02
1.670000000E+01 9.999996589E-01 7.601702898E-12 7.424203441E-02
1.680000000E+01 9.999996629E-01 7.511475769E-12 7.380011753E-02
1.690000000E+01 9.999996669E-01 7.422845562E-12 7.336343045E-02
1.700000000E+01 9.999996708E-01 7.335774813E-12 7.293188086E-02
1.710000000E+01 9.999996747E-01 6.839942006E-12 7.250537863E-02
1.720000000E+01 9.999996784E-01 6.666897409E-12 7.208383573E-02
1.730000000E+01 9.999996821E-01 6.498456427E-12 7.166716616E-02
1.740000000E+01 9.999996858E-01 6.334476807E-12 7.125528590E-02
1.750000000E+01 9.999996894E-01 6.215814605E-12 7.084811283E-02
1.760000000E+01 9.999996929E-01 6.145381013E-12 7.044556674E-02
1.770000000E+01 9.999996963E-01 6.076137836E-12 7.004756919E-02
1.780000000E+01 9.999996998E-01 6.008058398E-12 6.965404352E-02
1.790000000E+01 9.999997031E-01 5.941116765E-12 6.926491478E-02
1.800000000E+01 9.999997064E-01 5.468991348E-12 6.888010970E-02
1.810000000E+01 9.999997096E-01 5.337895764E-12 6.849955661E-02
1.820000000E+01 9.999997128E-01 5.210113113E-12 6.812318542E-02
1.830000000E+01 9.999997159E-01 5.085546076E-12 6.775092757E-02
1.840000000E+01 9.999997190E-01 4.964100647E-12 6.738271601E-02
1.850000000E+01 9.999997220E-01 4.845686007E-12 6.701848511E-02
1.860000000E+01 9.999997250E-01 4.742336429E-12 6.665817068E-02
1.870000000E+01 9.999997280E-01 4.691751869E-12 6.630170987E-02
1.880000000E+01 9.999997308E-01 4.641972361E-12 6.594904120E-02
1.890000000E+01 9.999997337E-01 4.592980911E-12 6.560010448E-02
1.900000000E+01 9.999997365E-01 4.544760973E-12 6.525484077E-02
1.910000000E+01 9.999997392E-01 4.497296431E-12 6.491319239E-02
1.920000000E+01 9.999997419E-01 4.450571591E-12 6.457510284E-02
1.930000000E+01 9.999997446E-01 4.404571159E-12 6.424051682E-02
1.940000000E+01 9.999997472E-01 3.944753862E-12 6.390938013E-02
1.950000000E+01 9.999997498E-01 3.856673984E-12 6.358163972E-02
1.960000000E+01 9.999997524E-01 3.770663728E-12 6.325724360E-02
1.970000000E+01 9.999997549E-01 3.686666571E-12 6.293614084E-02
1.980000000E+01 9.999997573E-01 3.604627779E-12 6.261828154E-02
1.990000000E+01 9.999997598E-01 3.524494345E-12 6.230361681E-02
2.000000000E+01 9.999997622E-01 3.446214924E-12 6.199209873E-02
2.010000000E+01 9.999997645E-01 3.369739772E-12 6.168368033E-02
2.020000000E+01 9.999997669E-01 3.295315998E-12 6.137831557E-02
2.030000000E+01 9.999997692E-01 3.262929797E-12 6.107595934E-02
2.040000000E+01 9.999997714E-01 3.231018694E-12 6.077656738E-02
2.050000000E+01 9.999997736E-01 3.199573444E-12 6.048009632E-02
2.060000000E+01 9.999997758E-01 3.168585022E-12 6.018650362E-02
2.070000000E+01 9.999997780E-01 3.138044621E-12 5.989574756E-02
2.080000000E+01 9.999997801E-01 3.107943648E-12 5.960778724E-02
2.090000000E+01 9.999997822E-01 3.078273711E-12 5.932258252E-02
2.100000000E+01 9.999997843E-01 3.049026621E-12 5.904009403E-02
2.110000000E+01 9.999997863E-01 3.020194380E-12 5.876028316E-02
2.120000000E+01 9.999997883E-01 2.675027803E-12 5.848311201E-02
2.130000000E+01 9.999997903E-01 2.620234487E-12 5.820854341E-02
2.140000000E+01 9.999997923E-01 2.566621431E-12 5.793654087E-02
2.150000000E+01 9.999997942E-01 2.514159081E-12 5.766706859E-02
2.160000000E+01 9.999997961E-01 2.462818741E-12 5.740009142E-02
2.170000000E+01 9.999997980E-01 2.412572544E-12 5.713557487E-02
2.180000000E+01 9.999997998E-01 2.363393426E-12 5.687348507E-02
2.190000000E+01 9.999998017E-01 2.315255100E-12 5.661378879E-02
2.200000000E+01 9.999998035E-01 2.268132028E-12 5.635645339E-02
2.210000000E+01 9.999998052E-01 2.221999399E-12 5.610144681E-02
2.220000000E+01 9.999998070E-01 2.191732809E-12 5.584873759E-02
2.230000000E+01 9.999998087E-01 2.172120086E-12 5.559829482E-02
2.240000000E+01 9.999998104E-01 2.152769447E-12 5.535008815E-02
2.250000000E+01 9.999998121E-01 2.133676243E-12 5.510408776E-02
2.260000000E+01 9.999998138E-01 2.114835926E-12 5.486026436E-02
2.270000000E+01 9.999998154E-01 2.096244052E-12 5.461858919E-02
2.280000000E+01 9.999998170E-01 2.077896271E-12 5.437903397E-02
2.290000000E+01 9.999998186E-01 2.059788329E-12 5.414157094E-02
2.300000000E+01 9.999998202E-01 2.041916064E-12 5.390617281E-02
2.310000000E+01 9.999998217E-01 2.024275403E-12 5.367281275E-02
2.320000000E+01 9.999998233E-01 2.006862362E-12 5.344146442E-02
2.330000000E+01 9.999998248E-01 1.768684467E-12 5.321210191E-02
2.340000000E+01 9.999998263E-01 1.735716446E-12 5.298469977E-02
2.350000000E+01 9.999998277E-01 1.703395241E-12 5.275923296E-02
2.360000000E+01 9.999998292E-01 1.671706093E-12 5.253567689E-02
2.370000000E+01 9.999998306E-01 1.640634631E-12 5.231400737E-02
2.380000000E+01 9.999998321E-01 1.610166866E-12 5.209420061E-02
2.390000000E+01 9.999998335E-01 1.580289175E-12 5.187623325E-02
2.400000000E+01 9.999998349E-01 1.550988291E-12 5.166008227E-02
2.410000000E+01 9.999998362E-01 1.522251294E-12 5.144572509E-02
2.420000000E+01 9.999998376E-01 1.494065599E-12 5.123313945E-02
2.430000000E+01 9.999998389E-01 1.466418947E-12 5.102230348E-02
2.440000000E+01 9.999998402E-01 1.439299395E-12 5.081319568E-02
2.450000000E+01 9.999998415E-01 1.425211084E-12 5.060579488E-02
2.460000000E+01 9.999998428E-01 1.413647553E-12 5.040008027E-02
2.470000000E+01 9.999998441E-01 1.402224185E-12 5.019603136E-02
2.480000000E+01 9.999998453E-01 1.390938724E-12 4.999362801E-02
2.490000000E+01 9.999998466E-01 1.379788960E-12 4.979285038E-02
2.500000000E+01 9.999998478E-01 1.368772725E-12 4.959367898E-02
2.510000000E+01 9.999998490E-01 1.357887895E-12 4.939609460E-02
2.520000000E+01 9.999998502E-01 1.347132390E-12 4.920007836E-02
2.530000000E+01 9.999998514E-01 1.336504168E-12 4.900561164E-02
2.540000000E+01 9.999998526E-01 1.326001229E-12 4.881267616E-02
2.550000000E+01 9.999998537E-01 1.315621612E-12 4.862125391E-02
2.560000000E+01 9.999998548E-01 1.169667494E-12 4.843132713E-02
2.570000000E+01 9.999998560E-01 1.149780752E-12 4.824287839E-02
2.580000000E+01 9.999998571E-01 1.130249677E-12 4.805589049E-02
2.590000000E+01 9.999998582E-01 1.111066872E-12 4.787034651E-02
2.600000000E+01 9.999998593E-01 1.092225113E-12 4.768622979E-02
2.610000000E+01 9.999998604E-01 1.073717355E-12 4.750352393E-02
2.620000000E+01 9.999998614E-01 1.055536719E-12 4.732221277E-02
2.630000000E+01 9.999998625E-01 1.037676491E-12 4.714228040E-02
2.640000000E+01 9.999998635E-01 1.020130116E-12 4.696371116E-02
2.650000000E+01 9.999998645E-01 1.002891197E-12 4.678648961E-02
2.660000000E+01 9.999998656E-01 9.859534844E-13 4.661060055E-02
2.670000000E+01 9.999998666E-01 9.693108796E-13 4.643602901E-02
2.680000000E+01 9.999998676E-01 9.555255249E-13 4.626276025E-02
2.690000000E+01 9.999998685E-01 9.484344509E-13 4.609077972E-02
2.700000000E+01 9.999998695E-01 9.414220206E-13 4.592007313E-02
2.710000000E+01 9.999998705E-01 9.344870754E-13 4.575062637E-02
2.720000000E+01 9.999998714E-01 9.276284778E-13 4.558242554E-02
2.730000000E+01 9.999998724E-01 9.208451113E-13 4.541545694E-02
2.740000000E+01 9.999998733E-01 9.141358797E-13 4.524970710E-02
2.750000000E+01 9.999998742E-01 9.074997065E-13 4.508516271E-02
2.760000000E+01 9.999998751E-01 9.009355348E-13 4.492181067E-02
2.770000000E+01 9.999998760E-01 8.944423269E-13 4.475963807E-02
2.780000000E+01 9.999998769E-01 8.880190635E-13 4.459863218E-02
2.790000000E+01 9.999998778E-01 8.816647435E-13 4.443878045E-02
2.800000000E+01 9.999998787E-01 8.753783840E-13 4.428007052E-02
2.810000000E+01 9.999998795E-01 7.767408640E-13 4.412249020E-02
2.820000000E+01 9.999998804E-01 7.646828120E-13 4.396602747E-02
2.830000000E+01 9.999998812E-01 7.528215202E-13 4.381067048E-02
2.840000000E+01 9.999998821E-01 7.411532533E-13 4.365640756E-02
2.850000000E+01 9.999998829E-01 7.296743583E-13 4.350322718E-02
2.860000000E+01 9.999998837E-01 7.183812623E-13 4.335111799E-02
2.870000000E+01 9.999998845E-01 7.072704708E-13 4.320006880E-02
2.880000000E+01 9.999998853E-01 6.963385655E-13 4.305006856E-02
2.890000000E+01 9.999998861E-01 6.855822026E-13 4.290110639E-02
2.900000000E+01 9.999998869E-01 6.749981106E-13 4.275317154E-02
2.910000000E+01 9.999998877E-01 6.645830887E-13 4.260625342E-02
2.920000000E+01 9.999998884E-01 6.543340054E-13 4.246034160E-02
2.930000000E+01 9.999998892E-01 6.442477961E-13 4.231542575E-02
2.940000000E+01 9.999998899E-01 6.358445705E-13 4.217149573E-02
2.950000000E+01 9.999998907E-01 6.315410664E-13 4.202854151E-02
2.960000000E+01 9.999998914E-01 6.272811050E-13 4.188655320E-02
2.970000000E+01 9.999998922E-01 6.230641012E-13 4.174552103E-02
2.980000000E+01 9.999998929E-01 6.188894791E-13 4.160543539E-02
2.990000000E+01 9.999998936E-01 6.147566727E-13 4.146628678E-02
3.000000000E+01 9.999998943E-01 6.106651256E-13 4.132806582E-02
3.010000000E+01 9.999998950E-01 6.066142901E-13 4.119076328E-02
3.020000000E+01 9.999998957E-01 6.026036281E-13 4.105437002E-02
3.030000000E+01 9.999998964E-01 5.986326101E-13 4.091887705E-02
3.040000000E+01 9.999998971E-01 5.947007152E-13 4.078427548E-02
3.050000000E+01 9.999998977E-01 5.908074313E-13 4.065055654E-02
3.060000000E+01 9.999998984E-01 5.336034450E-13 4.051771159E-02
3.070000000E+01 9.999998991E-01 5.260017237E-13 4.038573207E-02
3.080000000E+01 9.999998997E-01 5.185139676E-13 4.025460956E-02
3.090000000E+01 9.999999004E-01 5.111381880E-13 4.012433575E-02
3.100000000E+01 9.999999010E-01 5.038724364E-13 3.999490241E-02
3.110000000E+01 9.999999017E-01 4.967148038E-13 3.986630143E-02
3.120000000E+01 9.999999023E-01 4.896634196E-13 3.973852483E-02
3.130000000E+01 9.999999029E-01 4.827164508E-13 3.961156468E-02
3.140000000E+01 9.999999035E-01 4.758721010E-13 3.948541320E-02
3.150000000E+01 9.999999041E-01 4.691286098E-13 3.936006269E-02
3.160000000E+01 9.999999047E-01 4.624842518E-13 3.923550552E-02
3.170000000E+01 9.999999053E-01 4.559373359E-13 3.911173421E-02
