# 04/03/2022 
# Density retrieved from www.chemicool.com/densities.html 
# Includes the real (n) and complex (k) part of the  refractive index. 
# Element, Mn  (Z = 25) 
# Nominal density, g cm-3 =  7.43 
#    E [keV]      n       k    Wavelength [nm] 
1.000000000E+00 9.987544935E-01 5.940766561E-04 1.239841975E+00
1.100000000E+00 9.989231624E-01 4.299400766E-04 1.127129068E+00
1.200000000E+00 9.990751965E-01 3.284440926E-04 1.033201645E+00
1.300000000E+00 9.991943429E-01 2.410402023E-04 9.537245958E-01
1.400000000E+00 9.992975410E-01 1.858920363E-04 8.856014104E-01
1.500000000E+00 9.993840508E-01 1.472920136E-04 8.265613164E-01
1.600000000E+00 9.994561408E-01 1.166766512E-04 7.749012341E-01
1.700000000E+00 9.995168360E-01 9.327641036E-05 7.293188086E-01
1.800000000E+00 9.995684459E-01 7.662910864E-05 6.888010970E-01
1.900000000E+00 9.996124495E-01 6.252762782E-05 6.525484077E-01
2.000000000E+00 9.996502746E-01 5.192633854E-05 6.199209873E-01
2.100000000E+00 9.996829691E-01 4.352176950E-05 5.904009403E-01
2.200000000E+00 9.997114177E-01 3.677261618E-05 5.635645339E-01
2.300000000E+00 9.997362551E-01 3.125814508E-05 5.390617281E-01
2.400000000E+00 9.997581269E-01 2.677896483E-05 5.166008227E-01
2.500000000E+00 9.997773881E-01 2.304485505E-05 4.959367898E-01
2.600000000E+00 9.997941953E-01 2.123740927E-05 4.768622979E-01
2.700000000E+00 9.998097680E-01 1.738506905E-05 4.592007313E-01
2.800000000E+00 9.998232976E-01 1.546831176E-05 4.428007052E-01
2.900000000E+00 9.998352739E-01 1.441992440E-05 4.275317154E-01
3.000000000E+00 9.998466817E-01 1.179941809E-05 4.132806582E-01
3.100000000E+00 9.998566355E-01 1.044055609E-05 3.999490241E-01
3.200000000E+00 9.998655863E-01 9.439268996E-06 3.874506171E-01
3.300000000E+00 9.998736091E-01 8.875859920E-06 3.757096893E-01
3.400000000E+00 9.998814374E-01 7.417034933E-06 3.646594043E-01
3.500000000E+00 9.998882992E-01 6.654452900E-06 3.542405642E-01
3.600000000E+00 9.998945825E-01 5.982085802E-06 3.444005485E-01
3.700000000E+00 9.999002410E-01 5.593201916E-06 3.350924256E-01
3.800000000E+00 9.999054224E-01 5.302696277E-06 3.262742038E-01
3.900000000E+00 9.999106699E-01 4.445627943E-06 3.179081986E-01
4.000000000E+00 9.999152244E-01 4.041838561E-06 3.099604936E-01
4.100000000E+00 9.999194397E-01 3.680230000E-06 3.024004816E-01
4.200000000E+00 9.999232869E-01 3.434394565E-06 2.952004701E-01
4.300000000E+00 9.999268135E-01 3.276512717E-06 2.883353429E-01
4.400000000E+00 9.999301023E-01 3.129272734E-06 2.817822670E-01
4.500000000E+00 9.999336579E-01 2.598786989E-06 2.755204388E-01
4.600000000E+00 9.999366293E-01 2.390869351E-06 2.695308640E-01
4.700000000E+00 9.999394058E-01 2.202025120E-06 2.637961648E-01
4.800000000E+00 9.999419344E-01 2.086716730E-06 2.583004114E-01
4.900000000E+00 9.999442802E-01 2.002413722E-06 2.530289744E-01
5.000000000E+00 9.999468680E-01 1.746264944E-06 2.479683949E-01
5.100000000E+00 9.999490570E-01 1.620108550E-06 2.431062695E-01
5.200000000E+00 9.999511138E-01 1.504430192E-06 2.384311490E-01
5.300000000E+00 9.999530229E-01 1.410294073E-06 2.339324480E-01
5.400000000E+00 9.999547467E-01 1.358544599E-06 2.296003657E-01
5.500000000E+00 9.999567416E-01 1.216295752E-06 2.254258136E-01
5.600000000E+00 9.999584201E-01 1.135486394E-06 2.214003526E-01
5.700000000E+00 9.999599501E-01 1.074517187E-06 2.175161359E-01
5.800000000E+00 9.999613193E-01 1.037784287E-06 2.137658577E-01
5.900000000E+00 9.999631207E-01 9.317516603E-07 2.101427076E-01
6.000000000E+00 9.999644427E-01 8.863406068E-07 2.066403291E-01
6.100000000E+00 9.999660613E-01 8.207342679E-07 2.032527827E-01
6.200000000E+00 9.999672774E-01 7.841106756E-07 1.999745120E-01
6.300000000E+00 9.999689807E-01 7.291747854E-07 1.968003134E-01
6.400000000E+00 9.999711104E-01 7.816173438E-07 1.937253085E-01
6.500000000E+00 9.999735221E-01 2.496764459E-06 1.907449192E-01
6.600000000E+00 9.999731302E-01 4.621629870E-06 1.878548446E-01
6.700000000E+00 9.999725027E-01 4.664631666E-06 1.850510410E-01
6.800000000E+00 9.999726367E-01 4.435227808E-06 1.823297021E-01
6.900000000E+00 9.999729969E-01 4.211144503E-06 1.796872427E-01
7.000000000E+00 9.999736882E-01 4.074569481E-06 1.771202821E-01
7.100000000E+00 9.999739607E-01 3.819774490E-06 1.746256302E-01
7.200000000E+00 9.999744534E-01 3.623134050E-06 1.722002742E-01
7.300000000E+00 9.999750187E-01 3.472041421E-06 1.698413664E-01
7.400000000E+00 9.999755087E-01 3.285960045E-06 1.675462128E-01
7.500000000E+00 9.999760457E-01 3.141457662E-06 1.653122633E-01
7.600000000E+00 9.999765567E-01 2.988003824E-06 1.631371019E-01
7.700000000E+00 9.999770667E-01 2.852138331E-06 1.610184383E-01
7.800000000E+00 9.999776369E-01 2.770788246E-06 1.589540993E-01
7.900000000E+00 9.999780615E-01 2.600234214E-06 1.569420221E-01
8.000000000E+00 9.999785773E-01 2.514284096E-06 1.549802468E-01
8.100000000E+00 9.999790119E-01 2.374090844E-06 1.530669104E-01
8.200000000E+00 9.999795055E-01 2.303436747E-06 1.512002408E-01
8.300000000E+00 9.999799185E-01 2.172368262E-06 1.493785512E-01
8.400000000E+00 9.999803843E-01 2.111681238E-06 1.476002351E-01
8.500000000E+00 9.999807787E-01 1.994844455E-06 1.458637617E-01
8.600000000E+00 9.999811889E-01 1.908358165E-06 1.441676715E-01
8.700000000E+00 9.999815915E-01 1.832564004E-06 1.425105718E-01
8.800000000E+00 9.999820075E-01 1.791151466E-06 1.408911335E-01
8.900000000E+00 9.999823576E-01 1.684222160E-06 1.393080870E-01
9.000000000E+00 9.999827345E-01 1.630345948E-06 1.377602194E-01
9.100000000E+00 9.999830831E-01 1.553031095E-06 1.362463708E-01
9.200000000E+00 9.999834352E-01 1.499683259E-06 1.347654320E-01
9.300000000E+00 9.999837707E-01 1.437618364E-06 1.333163414E-01
9.400000000E+00 9.999841025E-01 1.388542364E-06 1.318980824E-01
9.500000000E+00 9.999844167E-01 1.327599340E-06 1.305096815E-01
9.600000000E+00 9.999847294E-01 1.282718182E-06 1.291502057E-01
9.700000000E+00 9.999850426E-01 1.256406713E-06 1.278187603E-01
9.800000000E+00 9.999853217E-01 1.185510120E-06 1.265144872E-01
9.900000000E+00 9.999856135E-01 1.155659903E-06 1.252365631E-01
1.000000000E+01 9.999858842E-01 1.101369581E-06 1.239841975E-01
1.010000000E+01 9.999861535E-01 1.062011544E-06 1.227566311E-01
1.020000000E+01 9.999864187E-01 1.031363644E-06 1.215531348E-01
1.030000000E+01 9.999866811E-01 1.011434382E-06 1.203730072E-01
1.040000000E+01 9.999869190E-01 9.534620272E-07 1.192155745E-01
1.050000000E+01 9.999871626E-01 9.254014894E-07 1.180801881E-01
1.060000000E+01 9.999874037E-01 9.080234444E-07 1.169662240E-01
1.070000000E+01 9.999876257E-01 8.579529585E-07 1.158730817E-01
1.080000000E+01 9.999878488E-01 8.286722053E-07 1.148001828E-01
1.090000000E+01 9.999880686E-01 8.076586252E-07 1.137469701E-01
1.100000000E+01 9.999882845E-01 7.930406716E-07 1.127129068E-01
1.110000000E+01 9.999884947E-01 7.788160154E-07 1.116974752E-01
1.120000000E+01 9.999886872E-01 7.240278665E-07 1.107001763E-01
1.130000000E+01 9.999888834E-01 7.003940366E-07 1.097205287E-01
1.140000000E+01 9.999890745E-01 6.776618758E-07 1.087580679E-01
1.150000000E+01 9.999892608E-01 6.557904613E-07 1.078123456E-01
1.160000000E+01 9.999894449E-01 6.437537784E-07 1.068829288E-01
1.170000000E+01 9.999896245E-01 6.327964674E-07 1.059693995E-01
1.180000000E+01 9.999897997E-01 6.221165500E-07 1.050713538E-01
1.190000000E+01 9.999899704E-01 6.117047413E-07 1.041884012E-01
1.200000000E+01 9.999901286E-01 5.603721431E-07 1.033201645E-01
1.210000000E+01 9.999902895E-01 5.433205179E-07 1.024662789E-01
1.220000000E+01 9.999904465E-01 5.268765980E-07 1.016263914E-01
1.230000000E+01 9.999905998E-01 5.110145934E-07 1.008001605E-01
1.240000000E+01 9.999907493E-01 4.957099932E-07 9.998725601E-02
1.250000000E+01 9.999908956E-01 4.819000685E-07 9.918735797E-02
1.260000000E+01 9.999910395E-01 4.742812151E-07 9.840015671E-02
1.270000000E+01 9.999911801E-01 4.668416251E-07 9.762535233E-02
1.280000000E+01 9.999913173E-01 4.595757184E-07 9.686265426E-02
1.290000000E+01 9.999914514E-01 4.524781306E-07 9.611178098E-02
1.300000000E+01 9.999915824E-01 4.455437024E-07 9.537245958E-02
1.310000000E+01 9.999917065E-01 4.037695766E-07 9.464442554E-02
1.320000000E+01 9.999918310E-01 3.923654471E-07 9.392742232E-02
1.330000000E+01 9.999919528E-01 3.813360046E-07 9.322120110E-02
1.340000000E+01 9.999920719E-01 3.706666110E-07 9.252552049E-02
1.350000000E+01 9.999921884E-01 3.603432959E-07 9.184014627E-02
1.360000000E+01 9.999923023E-01 3.503527225E-07 9.116485107E-02
1.370000000E+01 9.999924137E-01 3.406821543E-07 9.049941420E-02
1.380000000E+01 9.999925232E-01 3.349730456E-07 8.984362135E-02
1.390000000E+01 9.999926304E-01 3.301706268E-07 8.919726436E-02
1.400000000E+01 9.999927353E-01 3.254707490E-07 8.856014104E-02
1.410000000E+01 9.999928380E-01 3.208705135E-07 8.793205493E-02
1.420000000E+01 9.999929385E-01 3.163671236E-07 8.731281511E-02
1.430000000E+01 9.999930369E-01 3.119578796E-07 8.670223598E-02
1.440000000E+01 9.999931333E-01 3.076401755E-07 8.610013712E-02
1.450000000E+01 9.999932277E-01 3.034114949E-07 8.550634307E-02
1.460000000E+01 9.999933204E-01 2.684911949E-07 8.492068319E-02
1.470000000E+01 9.999934110E-01 2.616396551E-07 8.434299147E-02
1.480000000E+01 9.999934998E-01 2.549909589E-07 8.377310639E-02
1.490000000E+01 9.999935868E-01 2.485379669E-07 8.321087078E-02
1.500000000E+01 9.999936720E-01 2.422738334E-07 8.265613164E-02
1.510000000E+01 9.999937556E-01 2.361919924E-07 8.210874004E-02
1.520000000E+01 9.999938375E-01 2.302861446E-07 8.156855096E-02
1.530000000E+01 9.999939178E-01 2.245502452E-07 8.103542318E-02
1.540000000E+01 9.999939966E-01 2.189784918E-07 8.050921913E-02
1.550000000E+01 9.999940738E-01 2.135653132E-07 7.998980481E-02
1.560000000E+01 9.999941495E-01 2.102326964E-07 7.947704965E-02
1.570000000E+01 9.999942238E-01 2.075631019E-07 7.897082641E-02
1.580000000E+01 9.999942967E-01 2.049440354E-07 7.847101105E-02
1.590000000E+01 9.999943682E-01 2.023742296E-07 7.797748268E-02
1.600000000E+01 9.999944384E-01 1.998524570E-07 7.749012341E-02
1.610000000E+01 9.999945073E-01 1.973775279E-07 7.700881830E-02
1.620000000E+01 9.999945749E-01 1.949482891E-07 7.653345522E-02
1.630000000E+01 9.999946412E-01 1.925636230E-07 7.606392482E-02
1.640000000E+01 9.999947064E-01 1.902224457E-07 7.560012040E-02
1.650000000E+01 9.999947704E-01 1.879237061E-07 7.514193785E-02
1.660000000E+01 9.999948355E-01 1.648328347E-07 7.468927558E-02
1.670000000E+01 9.999948974E-01 1.610868170E-07 7.424203441E-02
1.680000000E+01 9.999949581E-01 1.574389584E-07 7.380011753E-02
1.690000000E+01 9.999950178E-01 1.538862044E-07 7.336343045E-02
1.700000000E+01 9.999950764E-01 1.504256115E-07 7.293188086E-02
1.710000000E+01 9.999951340E-01 1.470543429E-07 7.250537863E-02
1.720000000E+01 9.999951906E-01 1.437696634E-07 7.208383573E-02
1.730000000E+01 9.999952462E-01 1.405689359E-07 7.166716616E-02
1.740000000E+01 9.999953009E-01 1.374496173E-07 7.125528590E-02
1.750000000E+01 9.999953546E-01 1.344092540E-07 7.084811283E-02
1.760000000E+01 9.999954074E-01 1.314454792E-07 7.044556674E-02
1.770000000E+01 9.999954592E-01 1.294457160E-07 7.004756919E-02
1.780000000E+01 9.999955101E-01 1.279953553E-07 6.965404352E-02
1.790000000E+01 9.999955601E-01 1.265692343E-07 6.926491478E-02
1.800000000E+01 9.999956093E-01 1.251668160E-07 6.888010970E-02
1.810000000E+01 9.999956577E-01 1.237875778E-07 6.849955661E-02
1.820000000E+01 9.999957053E-01 1.224310119E-07 6.812318542E-02
1.830000000E+01 9.999957521E-01 1.210966239E-07 6.775092757E-02
1.840000000E+01 9.999957981E-01 1.197839330E-07 6.738271601E-02
1.850000000E+01 9.999958434E-01 1.184924715E-07 6.701848511E-02
1.860000000E+01 9.999958880E-01 1.172217839E-07 6.665817068E-02
1.870000000E+01 9.999959319E-01 1.159714272E-07 6.630170987E-02
1.880000000E+01 9.999959778E-01 1.022978259E-07 6.594904120E-02
1.890000000E+01 9.999960204E-01 1.002305644E-07 6.560010448E-02
1.900000000E+01 9.999960624E-01 9.821132902E-08 6.525484077E-02
1.910000000E+01 9.999961038E-01 9.623879503E-08 6.491319239E-02
1.920000000E+01 9.999961444E-01 9.431168058E-08 6.457510284E-02
1.930000000E+01 9.999961845E-01 9.242874489E-08 6.424051682E-02
1.940000000E+01 9.999962239E-01 9.058878682E-08 6.390938013E-02
1.950000000E+01 9.999962627E-01 8.879064339E-08 6.358163972E-02
1.960000000E+01 9.999963010E-01 8.703318838E-08 6.325724360E-02
1.970000000E+01 9.999963386E-01 8.531533103E-08 6.293614084E-02
1.980000000E+01 9.999963757E-01 8.363601472E-08 6.261828154E-02
1.990000000E+01 9.999964122E-01 8.199421577E-08 6.230361681E-02
2.000000000E+01 9.999964480E-01 8.098209565E-08 6.199209873E-02
2.010000000E+01 9.999964833E-01 8.017830811E-08 6.168368033E-02
2.020000000E+01 9.999965180E-01 7.938642844E-08 6.137831557E-02
2.030000000E+01 9.999965522E-01 7.860622257E-08 6.107595934E-02
2.040000000E+01 9.999965860E-01 7.783746218E-08 6.077656738E-02
2.050000000E+01 9.999966192E-01 7.707992447E-08 6.048009632E-02
2.060000000E+01 9.999966519E-01 7.633339207E-08 6.018650362E-02
2.070000000E+01 9.999966842E-01 7.559765283E-08 5.989574756E-02
2.080000000E+01 9.999967160E-01 7.487249967E-08 5.960778724E-02
2.090000000E+01 9.999967474E-01 7.415773050E-08 5.932258252E-02
2.100000000E+01 9.999967783E-01 7.345314798E-08 5.904009403E-02
2.110000000E+01 9.999968109E-01 6.551030314E-08 5.876028316E-02
2.120000000E+01 9.999968411E-01 6.431964259E-08 5.848311201E-02
2.130000000E+01 9.999968709E-01 6.315374157E-08 5.820854341E-02
2.140000000E+01 9.999969002E-01 6.201198934E-08 5.793654087E-02
2.150000000E+01 9.999969292E-01 6.089379277E-08 5.766706859E-02
2.160000000E+01 9.999969577E-01 5.979857577E-08 5.740009142E-02
2.170000000E+01 9.999969858E-01 5.872577870E-08 5.713557487E-02
2.180000000E+01 9.999970136E-01 5.767485786E-08 5.687348507E-02
2.190000000E+01 9.999970410E-01 5.664528496E-08 5.661378879E-02
2.200000000E+01 9.999970679E-01 5.563654660E-08 5.635645339E-02
2.210000000E+01 9.999970946E-01 5.464814381E-08 5.610144681E-02
2.220000000E+01 9.999971208E-01 5.367959160E-08 5.584873759E-02
2.230000000E+01 9.999971467E-01 5.273041845E-08 5.559829482E-02
2.240000000E+01 9.999971723E-01 5.180016596E-08 5.535008815E-02
2.250000000E+01 9.999971974E-01 5.133866062E-08 5.510408776E-02
2.260000000E+01 9.999972221E-01 5.088534133E-08 5.486026436E-02
2.270000000E+01 9.999972465E-01 5.043799984E-08 5.461858919E-02
2.280000000E+01 9.999972706E-01 4.999653150E-08 5.437903397E-02
2.290000000E+01 9.999972944E-01 4.956083396E-08 5.414157094E-02
2.300000000E+01 9.999973179E-01 4.913080706E-08 5.390617281E-02
2.310000000E+01 9.999973411E-01 4.870635284E-08 5.367281275E-02
2.320000000E+01 9.999973640E-01 4.828737540E-08 5.344146442E-02
2.330000000E+01 9.999973865E-01 4.787378094E-08 5.321210191E-02
2.340000000E+01 9.999974088E-01 4.746547764E-08 5.298469977E-02
2.350000000E+01 9.999974308E-01 4.706237562E-08 5.275923296E-02
2.360000000E+01 9.999974526E-01 4.666438692E-08 5.253567689E-02
2.370000000E+01 9.999974740E-01 4.627142541E-08 5.231400737E-02
2.380000000E+01 9.999974971E-01 4.102424921E-08 5.209420061E-02
2.390000000E+01 9.999975181E-01 4.035897323E-08 5.187623325E-02
2.400000000E+01 9.999975389E-01 3.970600439E-08 5.166008227E-02
2.410000000E+01 9.999975594E-01 3.906507272E-08 5.144572509E-02
2.420000000E+01 9.999975796E-01 3.843591520E-08 5.123313945E-02
2.430000000E+01 9.999975996E-01 3.781827551E-08 5.102230348E-02
2.440000000E+01 9.999976194E-01 3.721190384E-08 5.081319568E-02
2.450000000E+01 9.999976389E-01 3.661655674E-08 5.060579488E-02
2.460000000E+01 9.999976582E-01 3.603199690E-08 5.040008027E-02
2.470000000E+01 9.999976772E-01 3.545799295E-08 5.019603136E-02
2.480000000E+01 9.999976960E-01 3.489431936E-08 4.999362801E-02
2.490000000E+01 9.999977146E-01 3.434075621E-08 4.979285038E-02
2.500000000E+01 9.999977329E-01 3.379708905E-08 4.959367898E-02
2.510000000E+01 9.999977511E-01 3.326310875E-08 4.939609460E-02
2.520000000E+01 9.999977690E-01 3.273861132E-08 4.920007836E-02
2.530000000E+01 9.999977866E-01 3.233964686E-08 4.900561164E-02
2.540000000E+01 9.999978040E-01 3.208550523E-08 4.881267616E-02
2.550000000E+01 9.999978212E-01 3.183434765E-08 4.862125391E-02
2.560000000E+01 9.999978382E-01 3.158612756E-08 4.843132713E-02
2.570000000E+01 9.999978550E-01 3.134079934E-08 4.824287839E-02
2.580000000E+01 9.999978716E-01 3.109831825E-08 4.805589049E-02
2.590000000E+01 9.999978880E-01 3.085864039E-08 4.787034651E-02
2.600000000E+01 9.999979042E-01 3.062172272E-08 4.768622979E-02
2.610000000E+01 9.999979203E-01 3.038752302E-08 4.750352393E-02
2.620000000E+01 9.999979361E-01 3.015599988E-08 4.732221277E-02
2.630000000E+01 9.999979518E-01 2.992711266E-08 4.714228040E-02
2.640000000E+01 9.999979673E-01 2.970082151E-08 4.696371116E-02
2.650000000E+01 9.999979826E-01 2.947708730E-08 4.678648961E-02
2.660000000E+01 9.999979977E-01 2.925587167E-08 4.661060055E-02
2.670000000E+01 9.999980127E-01 2.903713695E-08 4.643602901E-02
2.680000000E+01 9.999980289E-01 2.577857248E-08 4.626276025E-02
2.690000000E+01 9.999980437E-01 2.540381255E-08 4.609077972E-02
2.700000000E+01 9.999980582E-01 2.503523598E-08 4.592007313E-02
2.710000000E+01 9.999980726E-01 2.467272191E-08 4.575062637E-02
2.720000000E+01 9.999980868E-01 2.431615225E-08 4.558242554E-02
2.730000000E+01 9.999981009E-01 2.396541161E-08 4.541545694E-02
2.740000000E+01 9.999981148E-01 2.362038719E-08 4.524970710E-02
2.750000000E+01 9.999981286E-01 2.328096875E-08 4.508516271E-02
2.760000000E+01 9.999981422E-01 2.294704857E-08 4.492181067E-02
2.770000000E+01 9.999981557E-01 2.261852129E-08 4.475963807E-02
2.780000000E+01 9.999981690E-01 2.229528395E-08 4.459863218E-02
2.790000000E+01 9.999981822E-01 2.197723587E-08 4.443878045E-02
2.800000000E+01 9.999981952E-01 2.166427863E-08 4.428007052E-02
2.810000000E+01 9.999982081E-01 2.135631595E-08 4.412249020E-02
2.820000000E+01 9.999982209E-01 2.105325371E-08 4.396602747E-02
2.830000000E+01 9.999982335E-01 2.075499985E-08 4.381067048E-02
2.840000000E+01 9.999982460E-01 2.046146433E-08 4.365640756E-02
2.850000000E+01 9.999982583E-01 2.030007656E-08 4.350322718E-02
2.860000000E+01 9.999982704E-01 2.015836616E-08 4.335111799E-02
2.870000000E+01 9.999982825E-01 2.001813447E-08 4.320006880E-02
2.880000000E+01 9.999982944E-01 1.987936099E-08 4.305006856E-02
2.890000000E+01 9.999983061E-01 1.974202558E-08 4.290110639E-02
2.900000000E+01 9.999983178E-01 1.960610842E-08 4.275317154E-02
2.910000000E+01 9.999983294E-01 1.947159007E-08 4.260625342E-02
2.920000000E+01 9.999983408E-01 1.933845138E-08 4.246034160E-02
2.930000000E+01 9.999983521E-01 1.920667356E-08 4.231542575E-02
2.940000000E+01 9.999983633E-01 1.907623812E-08 4.217149573E-02
2.950000000E+01 9.999983743E-01 1.894712690E-08 4.202854151E-02
2.960000000E+01 9.999983853E-01 1.881932202E-08 4.188655320E-02
2.970000000E+01 9.999983962E-01 1.869280593E-08 4.174552103E-02
2.980000000E+01 9.999984069E-01 1.856756135E-08 4.160543539E-02
2.990000000E+01 9.999984176E-01 1.844357131E-08 4.146628678E-02
3.000000000E+01 9.999984281E-01 1.832081909E-08 4.132806582E-02
3.010000000E+01 9.999984385E-01 1.819928829E-08 4.119076328E-02
3.020000000E+01 9.999984499E-01 1.611055085E-08 4.105437002E-02
3.030000000E+01 9.999984602E-01 1.590181385E-08 4.091887705E-02
3.040000000E+01 9.999984704E-01 1.569614060E-08 4.078427548E-02
3.050000000E+01 9.999984804E-01 1.549347785E-08 4.065055654E-02
3.060000000E+01 9.999984904E-01 1.529377342E-08 4.051771159E-02
3.070000000E+01 9.999985003E-01 1.509697618E-08 4.038573207E-02
3.080000000E+01 9.999985101E-01 1.490303606E-08 4.025460956E-02
3.090000000E+01 9.999985197E-01 1.471190397E-08 4.012433575E-02
3.100000000E+01 9.999985293E-01 1.452353182E-08 3.999490241E-02
3.110000000E+01 9.999985388E-01 1.433787249E-08 3.986630143E-02
3.120000000E+01 9.999985482E-01 1.415487977E-08 3.973852483E-02
3.130000000E+01 9.999985575E-01 1.397450841E-08 3.961156468E-02
3.140000000E+01 9.999985668E-01 1.379671402E-08 3.948541320E-02
3.150000000E+01 9.999985759E-01 1.362145312E-08 3.936006269E-02
3.160000000E+01 9.999985849E-01 1.344868306E-08 3.923550552E-02
3.170000000E+01 9.999985939E-01 1.327836205E-08 3.911173421E-02
