# 04/03/2022 
# Density retrieved from www.chemicool.com/densities.html 
# Includes the real (n) and complex (k) part of the  refractive index. 
# Element, Mo  (Z = 42) 
# Nominal density, g cm-3 =  10.2 
#    E [keV]      n       k    Wavelength [nm] 
1.000000000E+00 9.984413644E-01 4.964976199E-04 1.239841975E+00
1.100000000E+00 9.987061330E-01 3.920394399E-04 1.127129068E+00
1.200000000E+00 9.989043851E-01 2.724296135E-04 1.033201645E+00
1.300000000E+00 9.990653381E-01 2.245357909E-04 9.537245958E-01
1.400000000E+00 9.991961422E-01 1.625952294E-04 8.856014104E-01
1.500000000E+00 9.993001776E-01 1.351776253E-04 8.265613164E-01
1.600000000E+00 9.993902006E-01 1.033918034E-04 7.749012341E-01
1.700000000E+00 9.994620422E-01 8.513012455E-05 7.293188086E-01
1.800000000E+00 9.995201549E-01 7.593396912E-05 6.888010970E-01
1.900000000E+00 9.995788745E-01 5.730571916E-05 6.525484077E-01
2.000000000E+00 9.996218020E-01 4.959479489E-05 6.199209873E-01
2.100000000E+00 9.996656581E-01 4.049509846E-05 5.904009403E-01
2.200000000E+00 9.996978545E-01 3.561060784E-05 5.635645339E-01
2.300000000E+00 9.997345170E-01 2.972223901E-05 5.390617281E-01
2.400000000E+00 9.997673573E-01 2.570762704E-05 5.166008227E-01
2.500000000E+00 9.998261109E-01 3.103085447E-05 4.959367898E-01
2.600000000E+00 9.998255475E-01 7.188801733E-05 4.768622979E-01
2.700000000E+00 9.998181060E-01 8.457754958E-05 4.592007313E-01
2.800000000E+00 9.998183734E-01 7.476049868E-05 4.428007052E-01
2.900000000E+00 9.998214824E-01 7.521707900E-05 4.275317154E-01
3.000000000E+00 9.998274035E-01 6.852056682E-05 4.132806582E-01
3.100000000E+00 9.998320450E-01 6.110111118E-05 3.999490241E-01
3.200000000E+00 9.998376542E-01 5.426463562E-05 3.874506171E-01
3.300000000E+00 9.998436782E-01 4.804814999E-05 3.757096893E-01
3.400000000E+00 9.998506609E-01 4.318693581E-05 3.646594043E-01
3.500000000E+00 9.998580077E-01 3.968993921E-05 3.542405642E-01
3.600000000E+00 9.998639579E-01 3.526693594E-05 3.444005485E-01
3.700000000E+00 9.998708513E-01 3.294277345E-05 3.350924256E-01
3.800000000E+00 9.998762374E-01 2.931733643E-05 3.262742038E-01
3.900000000E+00 9.998817196E-01 2.655083956E-05 3.179081986E-01
4.000000000E+00 9.998873469E-01 2.489141643E-05 3.099604936E-01
4.100000000E+00 9.998919983E-01 2.221965539E-05 3.024004816E-01
4.200000000E+00 9.998967243E-01 2.039296904E-05 2.952004701E-01
4.300000000E+00 9.999011679E-01 1.878386379E-05 2.883353429E-01
4.400000000E+00 9.999053480E-01 1.726582992E-05 2.817822670E-01
4.500000000E+00 9.999093556E-01 1.611382877E-05 2.755204388E-01
4.600000000E+00 9.999130213E-01 1.472538161E-05 2.695308640E-01
4.700000000E+00 9.999165394E-01 1.361468256E-05 2.637961648E-01
4.800000000E+00 9.999199237E-01 1.285850726E-05 2.583004114E-01
4.900000000E+00 9.999230022E-01 1.172175914E-05 2.530289744E-01
5.000000000E+00 9.999259671E-01 1.088977247E-05 2.479683949E-01
5.100000000E+00 9.999287833E-01 1.019255606E-05 2.431062695E-01
5.200000000E+00 9.999314295E-01 9.455262177E-06 2.384311490E-01
5.300000000E+00 9.999339563E-01 8.887158184E-06 2.339324480E-01
5.400000000E+00 9.999363440E-01 8.303929706E-06 2.296003657E-01
5.500000000E+00 9.999386074E-01 7.743446515E-06 2.254258136E-01
5.600000000E+00 9.999407562E-01 7.204115432E-06 2.214003526E-01
5.700000000E+00 9.999428106E-01 6.886998085E-06 2.175161359E-01
5.800000000E+00 9.999447454E-01 6.366251065E-06 2.137658577E-01
5.900000000E+00 9.999465933E-01 5.954540877E-06 2.101427076E-01
6.000000000E+00 9.999483513E-01 5.598347733E-06 2.066403291E-01
6.100000000E+00 9.999500282E-01 5.269242942E-06 2.032527827E-01
6.200000000E+00 9.999516257E-01 5.009059229E-06 1.999745120E-01
6.300000000E+00 9.999531531E-01 4.680257855E-06 1.968003134E-01
6.400000000E+00 9.999546073E-01 4.461054627E-06 1.937253085E-01
6.500000000E+00 9.999560003E-01 4.171926160E-06 1.907449192E-01
6.600000000E+00 9.999573277E-01 3.957484064E-06 1.878548446E-01
6.700000000E+00 9.999586003E-01 3.730459176E-06 1.850510410E-01
6.800000000E+00 9.999598152E-01 3.540365008E-06 1.823297021E-01
6.900000000E+00 9.999609715E-01 3.438489350E-06 1.796872427E-01
7.000000000E+00 9.999620966E-01 3.171805002E-06 1.771202821E-01
7.100000000E+00 9.999631589E-01 3.063618337E-06 1.746256302E-01
7.200000000E+00 9.999641914E-01 2.857002066E-06 1.722002742E-01
7.300000000E+00 9.999651684E-01 2.759688367E-06 1.698413664E-01
7.400000000E+00 9.999661208E-01 2.581993400E-06 1.675462128E-01
7.500000000E+00 9.999670279E-01 2.456557433E-06 1.653122633E-01
7.600000000E+00 9.999678962E-01 2.354181057E-06 1.631371019E-01
7.700000000E+00 9.999687373E-01 2.229204051E-06 1.610184383E-01
7.800000000E+00 9.999695430E-01 2.124237264E-06 1.589540993E-01
7.900000000E+00 9.999703117E-01 2.057446203E-06 1.569420221E-01
8.000000000E+00 9.999710652E-01 1.933513762E-06 1.549802468E-01
8.100000000E+00 9.999717841E-01 1.845775328E-06 1.530669104E-01
8.200000000E+00 9.999724727E-01 1.779892782E-06 1.512002408E-01
8.300000000E+00 9.999731320E-01 1.737262167E-06 1.493785512E-01
8.400000000E+00 9.999737679E-01 1.696144993E-06 1.476002351E-01
8.500000000E+00 9.999743815E-01 1.656470459E-06 1.458637617E-01
8.600000000E+00 9.999749738E-01 1.618171859E-06 1.441676715E-01
8.700000000E+00 9.999755942E-01 1.417024916E-06 1.425105718E-01
8.800000000E+00 9.999761538E-01 1.357730341E-06 1.408911335E-01
8.900000000E+00 9.999766944E-01 1.301327098E-06 1.393080870E-01
9.000000000E+00 9.999772167E-01 1.247647895E-06 1.377602194E-01
9.100000000E+00 9.999777217E-01 1.196536714E-06 1.362463708E-01
9.200000000E+00 9.999782101E-01 1.147847945E-06 1.347654320E-01
9.300000000E+00 9.999786818E-01 1.104484009E-06 1.333163414E-01
9.400000000E+00 9.999791329E-01 1.081109347E-06 1.318980824E-01
9.500000000E+00 9.999795699E-01 1.058468941E-06 1.305096815E-01
9.600000000E+00 9.999799933E-01 1.036532356E-06 1.291502057E-01
9.700000000E+00 9.999804037E-01 1.015270719E-06 1.278187603E-01
9.800000000E+00 9.999808016E-01 9.946566214E-07 1.265144872E-01
9.900000000E+00 9.999812325E-01 8.735741746E-07 1.252365631E-01
1.000000000E+01 9.999816127E-01 8.412066122E-07 1.239841975E-01
1.010000000E+01 9.999819814E-01 8.102341708E-07 1.227566311E-01
1.020000000E+01 9.999823391E-01 7.805854654E-07 1.215531348E-01
1.030000000E+01 9.999826863E-01 7.521933702E-07 1.203730072E-01
1.040000000E+01 9.999830234E-01 7.249947274E-07 1.192155745E-01
1.050000000E+01 9.999833507E-01 6.989300794E-07 1.180801881E-01
1.060000000E+01 9.999836674E-01 6.766330501E-07 1.169662240E-01
1.070000000E+01 9.999839713E-01 6.640448031E-07 1.158730817E-01
1.080000000E+01 9.999842667E-01 6.518046083E-07 1.148001828E-01
1.090000000E+01 9.999845541E-01 6.398997518E-07 1.137469701E-01
1.100000000E+01 9.999848337E-01 6.283180951E-07 1.127129068E-01
1.110000000E+01 9.999851057E-01 6.170480441E-07 1.116974752E-01
1.120000000E+01 9.999853705E-01 6.060785197E-07 1.107001763E-01
1.130000000E+01 9.999856667E-01 5.311255691E-07 1.097205287E-01
1.140000000E+01 9.999859219E-01 5.137425865E-07 1.087580679E-01
1.150000000E+01 9.999861704E-01 4.970198095E-07 1.078123456E-01
1.160000000E+01 9.999864123E-01 4.809274667E-07 1.068829288E-01
1.170000000E+01 9.999866479E-01 4.654373530E-07 1.059693995E-01
1.180000000E+01 9.999868775E-01 4.505227357E-07 1.050713538E-01
1.190000000E+01 9.999871012E-01 4.361582663E-07 1.041884012E-01
1.200000000E+01 9.999873192E-01 4.223198982E-07 1.033201645E-01
1.210000000E+01 9.999875289E-01 4.138902041E-07 1.024662789E-01
1.220000000E+01 9.999877325E-01 4.071329265E-07 1.016263914E-01
1.230000000E+01 9.999879311E-01 4.005397897E-07 1.008001605E-01
1.240000000E+01 9.999881250E-01 3.941055202E-07 9.998725601E-02
1.250000000E+01 9.999883142E-01 3.878250546E-07 9.918735797E-02
1.260000000E+01 9.999884990E-01 3.816935297E-07 9.840015671E-02
1.270000000E+01 9.999886794E-01 3.757062730E-07 9.762535233E-02
1.280000000E+01 9.999888892E-01 3.316397972E-07 9.686265426E-02
1.290000000E+01 9.999890648E-01 3.220043924E-07 9.611178098E-02
1.300000000E+01 9.999892362E-01 3.126934503E-07 9.537245958E-02
1.310000000E+01 9.999894036E-01 3.036939935E-07 9.464442554E-02
1.320000000E+01 9.999895672E-01 2.949936506E-07 9.392742232E-02
1.330000000E+01 9.999897270E-01 2.865806242E-07 9.322120110E-02
1.340000000E+01 9.999898832E-01 2.784436596E-07 9.252552049E-02
1.350000000E+01 9.999900358E-01 2.705720170E-07 9.184014627E-02
1.360000000E+01 9.999901850E-01 2.629554441E-07 9.116485107E-02
1.370000000E+01 9.999903292E-01 2.574835286E-07 9.049941420E-02
1.380000000E+01 9.999904689E-01 2.537654037E-07 8.984362135E-02
1.390000000E+01 9.999906055E-01 2.501272371E-07 8.919726436E-02
1.400000000E+01 9.999907392E-01 2.465667524E-07 8.856014104E-02
1.410000000E+01 9.999908701E-01 2.430817538E-07 8.793205493E-02
1.420000000E+01 9.999909983E-01 2.396701224E-07 8.731281511E-02
1.430000000E+01 9.999911237E-01 2.363298131E-07 8.670223598E-02
1.440000000E+01 9.999912466E-01 2.330588517E-07 8.610013712E-02
1.450000000E+01 9.999913669E-01 2.298553316E-07 8.550634307E-02
1.460000000E+01 9.999915205E-01 2.012864046E-07 8.492068319E-02
1.470000000E+01 9.999916389E-01 1.961153751E-07 8.434299147E-02
1.480000000E+01 9.999917549E-01 1.910978044E-07 8.377310639E-02
1.490000000E+01 9.999918684E-01 1.862282844E-07 8.321087078E-02
1.500000000E+01 9.999919796E-01 1.815016299E-07 8.265613164E-02
1.510000000E+01 9.999920886E-01 1.769128677E-07 8.210874004E-02
1.520000000E+01 9.999921953E-01 1.724572267E-07 8.156855096E-02
1.530000000E+01 9.999923000E-01 1.681301288E-07 8.103542318E-02
1.540000000E+01 9.999924025E-01 1.639271794E-07 8.050921913E-02
1.550000000E+01 9.999925021E-01 1.604412862E-07 7.998980481E-02
1.560000000E+01 9.999925980E-01 1.583909394E-07 7.947704965E-02
1.570000000E+01 9.999926919E-01 1.563796463E-07 7.897082641E-02
1.580000000E+01 9.999927842E-01 1.544064213E-07 7.847101105E-02
1.590000000E+01 9.999928746E-01 1.524703098E-07 7.797748268E-02
1.600000000E+01 9.999929634E-01 1.505703868E-07 7.749012341E-02
1.610000000E+01 9.999930506E-01 1.487057560E-07 7.700881830E-02
1.620000000E+01 9.999931646E-01 1.352731261E-07 7.653345522E-02
1.630000000E+01 9.999932519E-01 1.321292384E-07 7.606392482E-02
1.640000000E+01 9.999933375E-01 1.290696781E-07 7.560012040E-02
1.650000000E+01 9.999934215E-01 1.260917587E-07 7.514193785E-02
1.660000000E+01 9.999935039E-01 1.231928938E-07 7.468927558E-02
1.670000000E+01 9.999935848E-01 1.203705925E-07 7.424203441E-02
1.680000000E+01 9.999936642E-01 1.176224558E-07 7.380011753E-02
1.690000000E+01 9.999937407E-01 1.154883983E-07 7.336343045E-02
1.700000000E+01 9.999938142E-01 1.141337074E-07 7.293188086E-02
1.710000000E+01 9.999938863E-01 1.128027135E-07 7.250537863E-02
1.720000000E+01 9.999939572E-01 1.114948670E-07 7.208383573E-02
1.730000000E+01 9.999940268E-01 1.102096343E-07 7.166716616E-02
1.740000000E+01 9.999941214E-01 1.028943343E-07 7.125528590E-02
1.750000000E+01 9.999941930E-01 1.006588106E-07 7.084811283E-02
1.760000000E+01 9.999942632E-01 9.847924856E-08 7.044556674E-02
1.770000000E+01 9.999943323E-01 9.635398447E-08 7.004756919E-02
1.780000000E+01 9.999944000E-01 9.428141254E-08 6.965404352E-02
1.790000000E+01 9.999944646E-01 9.272949188E-08 6.926491478E-02
1.800000000E+01 9.999945259E-01 9.170202621E-08 6.888010970E-02
1.810000000E+01 9.999945862E-01 9.069154328E-08 6.849955661E-02
1.820000000E+01 9.999946685E-01 8.661252921E-08 6.812318542E-02
1.830000000E+01 9.999947330E-01 8.481436487E-08 6.775092757E-02
1.840000000E+01 9.999947963E-01 8.305925208E-08 6.738271601E-02
1.850000000E+01 9.999948585E-01 8.134596627E-08 6.701848511E-02
1.860000000E+01 9.999949167E-01 8.006177044E-08 6.665817068E-02
1.870000000E+01 9.999949709E-01 7.920778433E-08 6.630170987E-02
1.880000000E+01 9.999950481E-01 7.647944222E-08 6.594904120E-02
1.890000000E+01 9.999951097E-01 7.493493607E-08 6.560010448E-02
1.900000000E+01 9.999951702E-01 7.342630317E-08 6.525484077E-02
1.910000000E+01 9.999952241E-01 7.237902589E-08 6.491319239E-02
1.920000000E+01 9.999952738E-01 7.162704111E-08 6.457510284E-02
1.930000000E+01 9.999953614E-01 6.918429546E-08 6.424051682E-02
1.940000000E+01 9.999954187E-01 6.805341106E-08 6.390938013E-02
1.950000000E+01 9.999954980E-01 6.772834313E-08 6.358163972E-02
1.960000000E+01 9.999955749E-01 7.036678455E-08 6.325724360E-02
1.970000000E+01 9.999956618E-01 8.385531714E-08 6.293614084E-02
1.980000000E+01 9.999957522E-01 1.190893751E-07 6.261828154E-02
1.990000000E+01 9.999958251E-01 1.659167837E-07 6.230361681E-02
2.000000000E+01 9.999958747E-01 2.294548824E-07 6.199209873E-02
2.010000000E+01 9.999959018E-01 2.918119703E-07 6.168368033E-02
2.020000000E+01 9.999959013E-01 3.415069549E-07 6.137831557E-02
2.030000000E+01 9.999958888E-01 3.676828827E-07 6.107595934E-02
2.040000000E+01 9.999958751E-01 3.719422093E-07 6.077656738E-02
2.050000000E+01 9.999959081E-01 3.693632504E-07 6.048009632E-02
2.060000000E+01 9.999959056E-01 3.618507915E-07 6.018650362E-02
2.070000000E+01 9.999959432E-01 3.581860822E-07 5.989574756E-02
2.080000000E+01 9.999959530E-01 3.495668597E-07 5.960778724E-02
2.090000000E+01 9.999959777E-01 3.437544574E-07 5.932258252E-02
2.100000000E+01 9.999960160E-01 3.404884003E-07 5.904009403E-02
2.110000000E+01 9.999960327E-01 3.321403562E-07 5.876028316E-02
2.120000000E+01 9.999960601E-01 3.265873808E-07 5.848311201E-02
2.130000000E+01 9.999960914E-01 3.221529928E-07 5.820854341E-02
2.140000000E+01 9.999961278E-01 3.191492516E-07 5.793654087E-02
2.150000000E+01 9.999961638E-01 3.161873257E-07 5.766706859E-02
2.160000000E+01 9.999961760E-01 3.054647281E-07 5.740009142E-02
2.170000000E+01 9.999962046E-01 3.004441824E-07 5.713557487E-02
2.180000000E+01 9.999962345E-01 2.960629552E-07 5.687348507E-02
2.190000000E+01 9.999962688E-01 2.933653569E-07 5.661378879E-02
2.200000000E+01 9.999963026E-01 2.907044604E-07 5.635645339E-02
2.210000000E+01 9.999963211E-01 2.812349271E-07 5.610144681E-02
2.220000000E+01 9.999963497E-01 2.766595806E-07 5.584873759E-02
2.230000000E+01 9.999963780E-01 2.721730065E-07 5.559829482E-02
2.240000000E+01 9.999964064E-01 2.680100552E-07 5.535008815E-02
2.250000000E+01 9.999964383E-01 2.656330377E-07 5.510408776E-02
2.260000000E+01 9.999964697E-01 2.632875036E-07 5.486026436E-02
2.270000000E+01 9.999965008E-01 2.609728994E-07 5.461858919E-02
2.280000000E+01 9.999965185E-01 2.510423880E-07 5.437903397E-02
2.290000000E+01 9.999965458E-01 2.470562612E-07 5.414157094E-02
2.300000000E+01 9.999965727E-01 2.431453190E-07 5.390617281E-02
2.310000000E+01 9.999965994E-01 2.393078615E-07 5.367281275E-02
2.320000000E+01 9.999966263E-01 2.358759193E-07 5.344146442E-02
2.330000000E+01 9.999966552E-01 2.338555781E-07 5.321210191E-02
2.340000000E+01 9.999966838E-01 2.318610833E-07 5.298469977E-02
2.350000000E+01 9.999967119E-01 2.298919960E-07 5.275923296E-02
2.360000000E+01 9.999967309E-01 2.214835155E-07 5.253567689E-02
2.370000000E+01 9.999967564E-01 2.181243168E-07 5.231400737E-02
2.380000000E+01 9.999967816E-01 2.148260864E-07 5.209420061E-02
2.390000000E+01 9.999968065E-01 2.115874949E-07 5.187623325E-02
2.400000000E+01 9.999968321E-01 2.091671104E-07 5.166008227E-02
2.410000000E+01 9.999968584E-01 2.074348850E-07 5.144572509E-02
2.420000000E+01 9.999968843E-01 2.057240892E-07 5.123313945E-02
2.430000000E+01 9.999969099E-01 2.040343707E-07 5.102230348E-02
2.440000000E+01 9.999969281E-01 1.963885958E-07 5.081319568E-02
2.450000000E+01 9.999969517E-01 1.935112953E-07 5.060579488E-02
2.460000000E+01 9.999969749E-01 1.906844957E-07 5.040008027E-02
2.470000000E+01 9.999969979E-01 1.879071315E-07 5.019603136E-02
2.480000000E+01 9.999970207E-01 1.851781640E-07 4.999362801E-02
2.490000000E+01 9.999970443E-01 1.834422808E-07 4.979285038E-02
2.500000000E+01 9.999970679E-01 1.819776776E-07 4.959367898E-02
2.510000000E+01 9.999970912E-01 1.805305448E-07 4.939609460E-02
2.520000000E+01 9.999971142E-01 1.791006055E-07 4.920007836E-02
2.530000000E+01 9.999971316E-01 1.722639236E-07 4.900561164E-02
2.540000000E+01 9.999971530E-01 1.698125413E-07 4.881267616E-02
2.550000000E+01 9.999971742E-01 1.674027799E-07 4.862125391E-02
2.560000000E+01 9.999971953E-01 1.650966742E-07 4.843132713E-02
2.570000000E+01 9.999972170E-01 1.638143747E-07 4.824287839E-02
2.580000000E+01 9.999972386E-01 1.625469569E-07 4.805589049E-02
2.590000000E+01 9.999972571E-01 1.581365860E-07 4.787034651E-02
2.600000000E+01 9.999972773E-01 1.559142834E-07 4.768622979E-02
2.610000000E+01 9.999972973E-01 1.537289976E-07 4.750352393E-02
2.620000000E+01 9.999973175E-01 1.521345764E-07 4.732221277E-02
2.630000000E+01 9.999973379E-01 1.509798590E-07 4.714228040E-02
2.640000000E+01 9.999973580E-01 1.498382384E-07 4.696371116E-02
2.650000000E+01 9.999973753E-01 1.453634090E-07 4.678648961E-02
2.660000000E+01 9.999973943E-01 1.433577556E-07 4.661060055E-02
2.670000000E+01 9.999974130E-01 1.413848159E-07 4.643602901E-02
2.680000000E+01 9.999974317E-01 1.395359036E-07 4.626276025E-02
2.690000000E+01 9.999974507E-01 1.385003903E-07 4.609077972E-02
2.700000000E+01 9.999974696E-01 1.374763613E-07 4.592007313E-02
2.710000000E+01 9.999974864E-01 1.338551433E-07 4.575062637E-02
2.720000000E+01 9.999975043E-01 1.320510907E-07 4.558242554E-02
2.730000000E+01 9.999975220E-01 1.302758059E-07 4.541545694E-02
2.740000000E+01 9.999975395E-01 1.285287394E-07 4.524970710E-02
2.750000000E+01 9.999975573E-01 1.275252482E-07 4.508516271E-02
2.760000000E+01 9.999975750E-01 1.266028263E-07 4.492181067E-02
2.770000000E+01 9.999975924E-01 1.256903765E-07 4.475963807E-02
2.780000000E+01 9.999976079E-01 1.218515075E-07 4.459863218E-02
2.790000000E+01 9.999976245E-01 1.202472586E-07 4.443878045E-02
2.800000000E+01 9.999976410E-01 1.186679717E-07 4.428007052E-02
2.810000000E+01 9.999976575E-01 1.175278354E-07 4.412249020E-02
2.820000000E+01 9.999976741E-01 1.166957825E-07 4.396602747E-02
2.830000000E+01 9.999976905E-01 1.158725344E-07 4.381067048E-02
2.840000000E+01 9.999977054E-01 1.126370298E-07 4.365640756E-02
2.850000000E+01 9.999977211E-01 1.111879248E-07 4.350322718E-02
2.860000000E+01 9.999977367E-01 1.098220767E-07 4.335111799E-02
2.870000000E+01 9.999977524E-01 1.090580993E-07 4.320006880E-02
2.880000000E+01 9.999977680E-01 1.083020663E-07 4.305006856E-02
2.890000000E+01 9.999977834E-01 1.075538677E-07 4.290110639E-02
2.900000000E+01 9.999977973E-01 1.042996796E-07 4.275317154E-02
2.910000000E+01 9.999978121E-01 1.029850097E-07 4.260625342E-02
2.920000000E+01 9.999978267E-01 1.016899467E-07 4.246034160E-02
2.930000000E+01 9.999978412E-01 1.004141403E-07 4.231542575E-02
2.940000000E+01 9.999978557E-01 9.942817888E-08 4.217149573E-02
2.950000000E+01 9.999978698E-01 9.794248377E-08 4.202854151E-02
2.960000000E+01 9.999978839E-01 9.673801694E-08 4.188655320E-02
2.970000000E+01 9.999978981E-01 9.601502393E-08 4.174552103E-02
2.980000000E+01 9.999979122E-01 9.537170899E-08 4.160543539E-02
2.990000000E+01 9.999979261E-01 9.473483793E-08 4.146628678E-02
3.000000000E+01 9.999979389E-01 9.204693995E-08 4.132806582E-02
3.010000000E+01 9.999979523E-01 9.091611072E-08 4.119076328E-02
3.020000000E+01 9.999979656E-01 8.980163858E-08 4.105437002E-02
3.030000000E+01 9.999979790E-01 8.920721114E-08 4.091887705E-02
3.040000000E+01 9.999979923E-01 8.862128687E-08 4.078427548E-02
3.050000000E+01 9.999980054E-01 8.804111634E-08 4.065055654E-02
3.060000000E+01 9.999980176E-01 8.550688186E-08 4.051771159E-02
3.070000000E+01 9.999980303E-01 8.447128495E-08 4.038573207E-02
3.080000000E+01 9.999980429E-01 8.345040596E-08 4.025460956E-02
3.090000000E+01 9.999980553E-01 8.244399480E-08 4.012433575E-02
3.100000000E+01 9.999980678E-01 8.166703253E-08 3.999490241E-02
3.110000000E+01 9.999980802E-01 8.114268697E-08 3.986630143E-02
3.120000000E+01 9.999980925E-01 8.062337511E-08 3.973852483E-02
3.130000000E+01 9.999981046E-01 8.010903272E-08 3.961156468E-02
3.140000000E+01 9.999981160E-01 7.765519228E-08 3.948541320E-02
3.150000000E+01 9.999981278E-01 7.673796038E-08 3.936006269E-02
3.160000000E+01 9.999981394E-01 7.583343795E-08 3.923550552E-02
3.170000000E+01 9.999981510E-01 7.500599134E-08 3.911173421E-02
