# 04/03/2022 
# Density retrieved from www.chemicool.com/densities.html 
# Includes the real (n) and complex (k) part of the  refractive index. 
# Element, Na  (Z = 11) 
# Nominal density, g cm-3 =  0.971 
#    E [keV]      n       k    Wavelength [nm] 
1.000000000E+00 9.998655763E-01 6.244667031E-06 1.239841975E+00
1.100000000E+00 9.998974903E-01 6.103175464E-05 1.127129068E+00
1.200000000E+00 9.998893802E-01 4.553420673E-05 1.033201645E+00
1.300000000E+00 9.998963296E-01 3.402573854E-05 9.537245958E-01
1.400000000E+00 9.999065538E-01 2.615915396E-05 8.856014104E-01
1.500000000E+00 9.999162865E-01 2.039683908E-05 8.265613164E-01
1.600000000E+00 9.999251795E-01 1.630573337E-05 7.749012341E-01
1.700000000E+00 9.999329189E-01 1.319214499E-05 7.293188086E-01
1.800000000E+00 9.999395751E-01 1.065950358E-05 6.888010970E-01
1.900000000E+00 9.999454363E-01 8.766503289E-06 6.525484077E-01
2.000000000E+00 9.999505478E-01 7.311430345E-06 6.199209873E-01
2.100000000E+00 9.999549910E-01 6.089961848E-06 5.904009403E-01
2.200000000E+00 9.999589549E-01 5.426736404E-06 5.635645339E-01
2.300000000E+00 9.999623305E-01 4.360124573E-06 5.390617281E-01
2.400000000E+00 9.999653841E-01 3.899526693E-06 5.166008227E-01
2.500000000E+00 9.999680657E-01 3.202204374E-06 4.959367898E-01
2.600000000E+00 9.999704592E-01 2.769400522E-06 4.768622979E-01
2.700000000E+00 9.999726068E-01 2.568058646E-06 4.592007313E-01
2.800000000E+00 9.999745331E-01 2.097175289E-06 4.428007052E-01
2.900000000E+00 9.999762611E-01 1.835788944E-06 4.275317154E-01
3.000000000E+00 9.999778181E-01 1.662404965E-06 4.132806582E-01
3.100000000E+00 9.999792261E-01 1.556882902E-06 3.999490241E-01
3.200000000E+00 9.999805279E-01 1.266356976E-06 3.874506171E-01
3.300000000E+00 9.999816981E-01 1.125249955E-06 3.757096893E-01
3.400000000E+00 9.999827615E-01 1.038118643E-06 3.646594043E-01
3.500000000E+00 9.999837325E-01 9.796450217E-07 3.542405642E-01
3.600000000E+00 9.999846494E-01 8.087684190E-07 3.444005485E-01
3.700000000E+00 9.999854763E-01 7.275882136E-07 3.350924256E-01
3.800000000E+00 9.999862353E-01 6.685469749E-07 3.262742038E-01
3.900000000E+00 9.999869322E-01 6.347020590E-07 3.179081986E-01
4.000000000E+00 9.999875966E-01 5.398741487E-07 3.099604936E-01
4.100000000E+00 9.999882014E-01 4.906093600E-07 3.024004816E-01
4.200000000E+00 9.999887629E-01 4.464235758E-07 2.952004701E-01
4.300000000E+00 9.999892823E-01 4.167584070E-07 2.883353429E-01
4.400000000E+00 9.999897639E-01 3.980301108E-07 2.817822670E-01
4.500000000E+00 9.999902138E-01 3.805364417E-07 2.755204388E-01
4.600000000E+00 9.999906540E-01 3.141504513E-07 2.695308640E-01
4.700000000E+00 9.999910522E-01 2.886575620E-07 2.637961648E-01
4.800000000E+00 9.999914253E-01 2.661149704E-07 2.583004114E-01
4.900000000E+00 9.999917717E-01 2.553639700E-07 2.530289744E-01
5.000000000E+00 9.999920975E-01 2.452515568E-07 2.479683949E-01
5.100000000E+00 9.999924164E-01 2.102306706E-07 2.431062695E-01
5.200000000E+00 9.999927088E-01 1.948257952E-07 2.384311490E-01
5.300000000E+00 9.999929846E-01 1.806915920E-07 2.339324480E-01
5.400000000E+00 9.999932450E-01 1.677055001E-07 2.296003657E-01
5.500000000E+00 9.999934887E-01 1.611448516E-07 2.254258136E-01
5.600000000E+00 9.999937191E-01 1.554410638E-07 2.214003526E-01
5.700000000E+00 9.999939376E-01 1.500348341E-07 2.175161359E-01
5.800000000E+00 9.999941548E-01 1.269339059E-07 2.137658577E-01
5.900000000E+00 9.999943535E-01 1.185994808E-07 2.101427076E-01
6.000000000E+00 9.999945422E-01 1.108766542E-07 2.066403291E-01
6.100000000E+00 9.999947212E-01 1.045380552E-07 2.032527827E-01
6.200000000E+00 9.999948901E-01 1.011930549E-07 1.999745120E-01
6.300000000E+00 9.999950511E-01 9.800607287E-08 1.968003134E-01
6.400000000E+00 9.999952045E-01 9.496731036E-08 1.937253085E-01
6.500000000E+00 9.999953579E-01 8.094422700E-08 1.907449192E-01
6.600000000E+00 9.999954990E-01 7.616435742E-08 1.878548446E-01
6.700000000E+00 9.999956338E-01 7.169960354E-08 1.850510410E-01
6.800000000E+00 9.999957625E-01 6.752565775E-08 1.823297021E-01
6.900000000E+00 9.999958852E-01 6.446627215E-08 1.796872427E-01
7.000000000E+00 9.999960019E-01 6.263753505E-08 1.771202821E-01
7.100000000E+00 9.999961137E-01 6.088552306E-08 1.746256302E-01
7.200000000E+00 9.999962209E-01 5.920600342E-08 1.722002742E-01
7.300000000E+00 9.999963284E-01 5.102961685E-08 1.698413664E-01
7.400000000E+00 9.999964279E-01 4.832483735E-08 1.675462128E-01
7.500000000E+00 9.999965235E-01 4.577986209E-08 1.653122633E-01
7.600000000E+00 9.999966152E-01 4.338363543E-08 1.631371019E-01
7.700000000E+00 9.999967032E-01 4.142040362E-08 1.610184383E-01
7.800000000E+00 9.999967871E-01 4.036515007E-08 1.589540993E-01
7.900000000E+00 9.999968680E-01 3.934971528E-08 1.569420221E-01
8.000000000E+00 9.999969458E-01 3.837212079E-08 1.549802468E-01
8.100000000E+00 9.999970207E-01 3.743050953E-08 1.530669104E-01
8.200000000E+00 9.999970964E-01 3.206994354E-08 1.512002408E-01
8.300000000E+00 9.999971666E-01 3.053800206E-08 1.493785512E-01
8.400000000E+00 9.999972342E-01 2.908724176E-08 1.476002351E-01
8.500000000E+00 9.999972995E-01 2.771262609E-08 1.458637617E-01
8.600000000E+00 9.999973623E-01 2.654019838E-08 1.441676715E-01
8.700000000E+00 9.999974226E-01 2.593358531E-08 1.425105718E-01
8.800000000E+00 9.999974808E-01 2.534753451E-08 1.408911335E-01
8.900000000E+00 9.999975371E-01 2.478112703E-08 1.393080870E-01
9.000000000E+00 9.999975916E-01 2.423349472E-08 1.377602194E-01
9.100000000E+00 9.999976464E-01 2.110663255E-08 1.362463708E-01
9.200000000E+00 9.999976977E-01 2.019448328E-08 1.347654320E-01
9.300000000E+00 9.999977473E-01 1.932606714E-08 1.333163414E-01
9.400000000E+00 9.999977954E-01 1.849892724E-08 1.318980824E-01
9.500000000E+00 9.999978419E-01 1.771076668E-08 1.305096815E-01
9.600000000E+00 9.999978867E-01 1.719453250E-08 1.291502057E-01
9.700000000E+00 9.999979301E-01 1.684183351E-08 1.278187603E-01
9.800000000E+00 9.999979721E-01 1.649987625E-08 1.265144872E-01
9.900000000E+00 9.999980129E-01 1.616822890E-08 1.252365631E-01
1.000000000E+01 9.999980524E-01 1.584648115E-08 1.239841975E-01
1.010000000E+01 9.999980924E-01 1.385994923E-08 1.227566311E-01
1.020000000E+01 9.999981298E-01 1.331607652E-08 1.215531348E-01
1.030000000E+01 9.999981662E-01 1.279581662E-08 1.203730072E-01
1.040000000E+01 9.999982016E-01 1.229796819E-08 1.192155745E-01
1.050000000E+01 9.999982359E-01 1.182140077E-08 1.180801881E-01
1.060000000E+01 9.999982692E-01 1.136505004E-08 1.169662240E-01
1.070000000E+01 9.999983015E-01 1.108011132E-08 1.158730817E-01
1.080000000E+01 9.999983328E-01 1.087587401E-08 1.148001828E-01
1.090000000E+01 9.999983633E-01 1.067723209E-08 1.137469701E-01
1.100000000E+01 9.999983929E-01 1.048398302E-08 1.127129068E-01
1.110000000E+01 9.999984217E-01 1.029593332E-08 1.116974752E-01
1.120000000E+01 9.999984498E-01 1.011289816E-08 1.107001763E-01
1.130000000E+01 9.999984782E-01 8.793803396E-09 1.097205287E-01
1.140000000E+01 9.999985050E-01 8.483608402E-09 1.087580679E-01
1.150000000E+01 9.999985310E-01 8.185502237E-09 1.078123456E-01
1.160000000E+01 9.999985564E-01 7.898932602E-09 1.068829288E-01
1.170000000E+01 9.999985811E-01 7.623376490E-09 1.059693995E-01
1.180000000E+01 9.999986052E-01 7.358338412E-09 1.050713538E-01
1.190000000E+01 9.999986287E-01 7.103348744E-09 1.041884012E-01
1.200000000E+01 9.999986514E-01 6.961701334E-09 1.033201645E-01
1.210000000E+01 9.999986736E-01 6.847107384E-09 1.024662789E-01
1.220000000E+01 9.999986953E-01 6.735319754E-09 1.016263914E-01
1.230000000E+01 9.999987164E-01 6.626247552E-09 1.008001605E-01
1.240000000E+01 9.999987370E-01 6.519803539E-09 9.998725601E-02
1.250000000E+01 9.999987572E-01 6.415903950E-09 9.918735797E-02
1.260000000E+01 9.999987776E-01 5.642399309E-09 9.840015671E-02
1.270000000E+01 9.999987968E-01 5.462795912E-09 9.762535233E-02
1.280000000E+01 9.999988157E-01 5.289495657E-09 9.686265426E-02
1.290000000E+01 9.999988340E-01 5.122239184E-09 9.611178098E-02
1.300000000E+01 9.999988520E-01 4.960779531E-09 9.537245958E-02
1.310000000E+01 9.999988696E-01 4.804881452E-09 9.464442554E-02
1.320000000E+01 9.999988867E-01 4.654320784E-09 9.392742232E-02
1.330000000E+01 9.999989034E-01 4.525480322E-09 9.322120110E-02
1.340000000E+01 9.999989197E-01 4.458187871E-09 9.252552049E-02
1.350000000E+01 9.999989357E-01 4.392385263E-09 9.184014627E-02
1.360000000E+01 9.999989513E-01 4.328028839E-09 9.116485107E-02
1.370000000E+01 9.999989665E-01 4.265076531E-09 9.049941420E-02
1.380000000E+01 9.999989815E-01 4.203487787E-09 8.984362135E-02
1.390000000E+01 9.999989961E-01 4.143223509E-09 8.919726436E-02
1.400000000E+01 9.999990104E-01 4.084245991E-09 8.856014104E-02
1.410000000E+01 9.999990249E-01 3.563671718E-09 8.793205493E-02
1.420000000E+01 9.999990386E-01 3.461746816E-09 8.731281511E-02
1.430000000E+01 9.999990521E-01 3.363030332E-09 8.670223598E-02
1.440000000E+01 9.999990653E-01 3.267403830E-09 8.610013712E-02
1.450000000E+01 9.999990782E-01 3.174753956E-09 8.550634307E-02
1.460000000E+01 9.999990908E-01 3.084972187E-09 8.492068319E-02
1.470000000E+01 9.999991032E-01 2.997954594E-09 8.434299147E-02
1.480000000E+01 9.999991153E-01 2.913601626E-09 8.377310639E-02
1.490000000E+01 9.999991272E-01 2.844469772E-09 8.321087078E-02
1.500000000E+01 9.999991388E-01 2.806669930E-09 8.265613164E-02
1.510000000E+01 9.999991502E-01 2.769618588E-09 8.210874004E-02
1.520000000E+01 9.999991613E-01 2.733296114E-09 8.156855096E-02
1.530000000E+01 9.999991722E-01 2.697683516E-09 8.103542318E-02
1.540000000E+01 9.999991830E-01 2.662762414E-09 8.050921913E-02
1.550000000E+01 9.999991935E-01 2.628515023E-09 7.998980481E-02
1.560000000E+01 9.999992038E-01 2.594924121E-09 7.947704965E-02
1.570000000E+01 9.999992142E-01 2.291815672E-09 7.897082641E-02
1.580000000E+01 9.999992242E-01 2.232638791E-09 7.847101105E-02
1.590000000E+01 9.999992339E-01 2.175140484E-09 7.797748268E-02
1.600000000E+01 9.999992435E-01 2.119264911E-09 7.749012341E-02
1.610000000E+01 9.999992529E-01 2.064958392E-09 7.700881830E-02
1.620000000E+01 9.999992622E-01 2.012169313E-09 7.653345522E-02
1.630000000E+01 9.999992712E-01 1.960848030E-09 7.606392482E-02
1.640000000E+01 9.999992801E-01 1.910946789E-09 7.560012040E-02
1.650000000E+01 9.999992888E-01 1.862419639E-09 7.514193785E-02
1.660000000E+01 9.999992974E-01 1.827185740E-09 7.468927558E-02
1.670000000E+01 9.999993058E-01 1.805368792E-09 7.424203441E-02
1.680000000E+01 9.999993140E-01 1.783940272E-09 7.380011753E-02
1.690000000E+01 9.999993221E-01 1.762891014E-09 7.336343045E-02
1.700000000E+01 9.999993301E-01 1.742212119E-09 7.293188086E-02
1.710000000E+01 9.999993379E-01 1.721894951E-09 7.250537863E-02
1.720000000E+01 9.999993456E-01 1.701931120E-09 7.208383573E-02
1.730000000E+01 9.999993531E-01 1.682312481E-09 7.166716616E-02
1.740000000E+01 9.999993605E-01 1.663031122E-09 7.125528590E-02
1.750000000E+01 9.999993680E-01 1.465298509E-09 7.084811283E-02
1.760000000E+01 9.999993752E-01 1.431166518E-09 7.044556674E-02
1.770000000E+01 9.999993823E-01 1.397905976E-09 7.004756919E-02
1.780000000E+01 9.999993892E-01 1.365490791E-09 6.965404352E-02
1.790000000E+01 9.999993961E-01 1.333895781E-09 6.926491478E-02
1.800000000E+01 9.999994028E-01 1.303096634E-09 6.888010970E-02
1.810000000E+01 9.999994094E-01 1.273069877E-09 6.849955661E-02
1.820000000E+01 9.999994159E-01 1.243792841E-09 6.812318542E-02
1.830000000E+01 9.999994223E-01 1.215243631E-09 6.775092757E-02
1.840000000E+01 9.999994285E-01 1.187401095E-09 6.738271601E-02
1.850000000E+01 9.999994347E-01 1.169740786E-09 6.701848511E-02
1.860000000E+01 9.999994408E-01 1.157196740E-09 6.665817068E-02
1.870000000E+01 9.999994467E-01 1.144853396E-09 6.630170987E-02
1.880000000E+01 9.999994526E-01 1.132706496E-09 6.594904120E-02
1.890000000E+01 9.999994584E-01 1.120751894E-09 6.560010448E-02
1.900000000E+01 9.999994641E-01 1.108985551E-09 6.525484077E-02
1.910000000E+01 9.999994697E-01 1.097403536E-09 6.491319239E-02
1.920000000E+01 9.999994752E-01 1.086002018E-09 6.457510284E-02
1.930000000E+01 9.999994806E-01 1.074777267E-09 6.424051682E-02
1.940000000E+01 9.999994861E-01 9.566070738E-10 6.390938013E-02
1.950000000E+01 9.999994914E-01 9.364485466E-10 6.358163972E-02
1.960000000E+01 9.999994966E-01 9.167553288E-10 6.325724360E-02
1.970000000E+01 9.999995017E-01 8.975148218E-10 6.293614084E-02
1.980000000E+01 9.999995067E-01 8.787148239E-10 6.261828154E-02
1.990000000E+01 9.999995117E-01 8.603435162E-10 6.230361681E-02
2.000000000E+01 9.999995166E-01 8.423894485E-10 6.199209873E-02
2.010000000E+01 9.999995214E-01 8.248415262E-10 6.168368033E-02
2.020000000E+01 9.999995261E-01 8.076889977E-10 6.137831557E-02
2.030000000E+01 9.999995308E-01 7.909214426E-10 6.107595934E-02
2.040000000E+01 9.999995354E-01 7.745287593E-10 6.077656738E-02
2.050000000E+01 9.999995399E-01 7.612263676E-10 6.048009632E-02
2.060000000E+01 9.999995444E-01 7.538537585E-10 6.018650362E-02
2.070000000E+01 9.999995488E-01 7.465877406E-10 5.989574756E-02
2.080000000E+01 9.999995531E-01 7.394262689E-10 5.960778724E-02
2.090000000E+01 9.999995573E-01 7.323673473E-10 5.932258252E-02
2.100000000E+01 9.999995616E-01 7.254090271E-10 5.904009403E-02
2.110000000E+01 9.999995657E-01 7.185494058E-10 5.876028316E-02
2.120000000E+01 9.999995698E-01 7.117866255E-10 5.848311201E-02
2.130000000E+01 9.999995738E-01 7.051188718E-10 5.820854341E-02
2.140000000E+01 9.999995778E-01 6.985443728E-10 5.793654087E-02
2.150000000E+01 9.999995817E-01 6.920613974E-10 5.766706859E-02
2.160000000E+01 9.999995857E-01 6.128763641E-10 5.740009142E-02
2.170000000E+01 9.999995895E-01 6.012323822E-10 5.713557487E-02
2.180000000E+01 9.999995933E-01 5.898303872E-10 5.687348507E-02
2.190000000E+01 9.999995970E-01 5.786644797E-10 5.661378879E-02
2.200000000E+01 9.999996007E-01 5.677289276E-10 5.635645339E-02
2.210000000E+01 9.999996043E-01 5.570181612E-10 5.610144681E-02
2.220000000E+01 9.999996078E-01 5.465267670E-10 5.584873759E-02
2.230000000E+01 9.999996113E-01 5.362494835E-10 5.559829482E-02
2.240000000E+01 9.999996148E-01 5.261811958E-10 5.535008815E-02
2.250000000E+01 9.999996182E-01 5.163169312E-10 5.510408776E-02
2.260000000E+01 9.999996216E-01 5.066518547E-10 5.486026436E-02
2.270000000E+01 9.999996250E-01 4.971812643E-10 5.461858919E-02
2.280000000E+01 9.999996282E-01 4.914021587E-10 5.437903397E-02
2.290000000E+01 9.999996315E-01 4.871198073E-10 5.414157094E-02
2.300000000E+01 9.999996347E-01 4.828931912E-10 5.390617281E-02
2.310000000E+01 9.999996378E-01 4.787213474E-10 5.367281275E-02
2.320000000E+01 9.999996409E-01 4.746033334E-10 5.344146442E-02
2.330000000E+01 9.999996440E-01 4.705382272E-10 5.321210191E-02
2.340000000E+01 9.999996471E-01 4.665251263E-10 5.298469977E-02
2.350000000E+01 9.999996501E-01 4.625631474E-10 5.275923296E-02
2.360000000E+01 9.999996530E-01 4.586514259E-10 5.253567689E-02
2.370000000E+01 9.999996559E-01 4.547891153E-10 5.231400737E-02
2.380000000E+01 9.999996588E-01 4.509753869E-10 5.209420061E-02
2.390000000E+01 9.999996617E-01 4.021304110E-10 5.187623325E-02
2.400000000E+01 9.999996646E-01 3.951712993E-10 5.166008227E-02
2.410000000E+01 9.999996673E-01 3.883433564E-10 5.144572509E-02
2.420000000E+01 9.999996701E-01 3.816436838E-10 5.123313945E-02
2.430000000E+01 9.999996728E-01 3.750694581E-10 5.102230348E-02
2.440000000E+01 9.999996755E-01 3.686179279E-10 5.081319568E-02
2.450000000E+01 9.999996781E-01 3.622864120E-10 5.060579488E-02
2.460000000E+01 9.999996808E-01 3.560722975E-10 5.040008027E-02
2.470000000E+01 9.999996833E-01 3.499730376E-10 5.019603136E-02
2.480000000E+01 9.999996859E-01 3.439861498E-10 4.999362801E-02
2.490000000E+01 9.999996884E-01 3.381092140E-10 4.979285038E-02
2.500000000E+01 9.999996909E-01 3.323398706E-10 4.959367898E-02
2.510000000E+01 9.999996934E-01 3.266758190E-10 4.939609460E-02
2.520000000E+01 9.999996958E-01 3.220236144E-10 4.920007836E-02
2.530000000E+01 9.999996982E-01 3.194830041E-10 4.900561164E-02
2.540000000E+01 9.999997006E-01 3.169723419E-10 4.881267616E-02
2.550000000E+01 9.999997029E-01 3.144911589E-10 4.862125391E-02
2.560000000E+01 9.999997052E-01 3.120389955E-10 4.843132713E-02
2.570000000E+01 9.999997075E-01 3.096154008E-10 4.824287839E-02
2.580000000E+01 9.999997098E-01 3.072199328E-10 4.805589049E-02
2.590000000E+01 9.999997120E-01 3.048521580E-10 4.787034651E-02
2.600000000E+01 9.999997142E-01 3.025116510E-10 4.768622979E-02
2.610000000E+01 9.999997164E-01 3.001979949E-10 4.750352393E-02
2.620000000E+01 9.999997186E-01 2.979107804E-10 4.732221277E-02
2.630000000E+01 9.999997207E-01 2.956496062E-10 4.714228040E-02
2.640000000E+01 9.999997228E-01 2.934140784E-10 4.696371116E-02
2.650000000E+01 9.999997250E-01 2.611732087E-10 4.678648961E-02
2.660000000E+01 9.999997270E-01 2.570937582E-10 4.661060055E-02
2.670000000E+01 9.999997291E-01 2.530837386E-10 4.643602901E-02
2.680000000E+01 9.999997311E-01 2.491417642E-10 4.626276025E-02
2.690000000E+01 9.999997331E-01 2.452664814E-10 4.609077972E-02
2.700000000E+01 9.999997351E-01 2.414565678E-10 4.592007313E-02
2.710000000E+01 9.999997370E-01 2.377107318E-10 4.575062637E-02
2.720000000E+01 9.999997390E-01 2.340277113E-10 4.558242554E-02
2.730000000E+01 9.999997409E-01 2.304062732E-10 4.541545694E-02
2.740000000E+01 9.999997428E-01 2.268452127E-10 4.524970710E-02
2.750000000E+01 9.999997446E-01 2.233433521E-10 4.508516271E-02
2.760000000E+01 9.999997465E-01 2.198995407E-10 4.492181067E-02
2.770000000E+01 9.999997483E-01 2.165126537E-10 4.475963807E-02
2.780000000E+01 9.999997501E-01 2.131815917E-10 4.459863218E-02
2.790000000E+01 9.999997519E-01 2.110166322E-10 4.443878045E-02
2.800000000E+01 9.999997537E-01 2.095120621E-10 4.428007052E-02
2.810000000E+01 9.999997554E-01 2.080235264E-10 4.412249020E-02
2.820000000E+01 9.999997572E-01 2.065507981E-10 4.396602747E-02
2.830000000E+01 9.999997589E-01 2.050936542E-10 4.381067048E-02
2.840000000E+01 9.999997606E-01 2.036518755E-10 4.365640756E-02
2.850000000E+01 9.999997623E-01 2.022252468E-10 4.350322718E-02
2.860000000E+01 9.999997639E-01 2.008135565E-10 4.335111799E-02
2.870000000E+01 9.999997656E-01 1.994165969E-10 4.320006880E-02
2.880000000E+01 9.999997672E-01 1.980341636E-10 4.305006856E-02
2.890000000E+01 9.999997688E-01 1.966660561E-10 4.290110639E-02
2.900000000E+01 9.999997704E-01 1.953120769E-10 4.275317154E-02
2.910000000E+01 9.999997720E-01 1.939720323E-10 4.260625342E-02
2.920000000E+01 9.999997736E-01 1.740171840E-10 4.246034160E-02
2.930000000E+01 9.999997751E-01 1.715422938E-10 4.231542575E-02
2.940000000E+01 9.999997766E-01 1.691057016E-10 4.217149573E-02
2.950000000E+01 9.999997781E-01 1.667067124E-10 4.202854151E-02
2.960000000E+01 9.999997796E-01 1.643446459E-10 4.188655320E-02
2.970000000E+01 9.999997811E-01 1.620188362E-10 4.174552103E-02
2.980000000E+01 9.999997826E-01 1.597286313E-10 4.160543539E-02
2.990000000E+01 9.999997841E-01 1.574733929E-10 4.146628678E-02
3.000000000E+01 9.999997855E-01 1.552524959E-10 4.132806582E-02
3.010000000E+01 9.999997869E-01 1.530653286E-10 4.119076328E-02
3.020000000E+01 9.999997883E-01 1.509112914E-10 4.105437002E-02
3.030000000E+01 9.999997897E-01 1.487897975E-10 4.091887705E-02
3.040000000E+01 9.999997911E-01 1.467002721E-10 4.078427548E-02
3.050000000E+01 9.999997925E-01 1.446421523E-10 4.065055654E-02
3.060000000E+01 9.999997938E-01 1.426148864E-10 4.051771159E-02
3.070000000E+01 9.999997952E-01 1.414724855E-10 4.038573207E-02
3.080000000E+01 9.999997965E-01 1.405553243E-10 4.025460956E-02
3.090000000E+01 9.999997978E-01 1.396470532E-10 4.012433575E-02
3.100000000E+01 9.999997991E-01 1.387475576E-10 3.999490241E-02
3.110000000E+01 9.999998004E-01 1.378567249E-10 3.986630143E-02
3.120000000E+01 9.999998017E-01 1.369744441E-10 3.973852483E-02
3.130000000E+01 9.999998030E-01 1.361006062E-10 3.961156468E-02
3.140000000E+01 9.999998042E-01 1.352351037E-10 3.948541320E-02
3.150000000E+01 9.999998054E-01 1.343778311E-10 3.936006269E-02
3.160000000E+01 9.999998067E-01 1.335286842E-10 3.923550552E-02
3.170000000E+01 9.999998079E-01 1.326875607E-10 3.911173421E-02
