# 04/03/2022 
# Density retrieved from www.chemicool.com/densities.html 
# Includes the real (n) and complex (k) part of the  refractive index. 
# Element, Os  (Z = 76) 
# Nominal density, g cm-3 =  22.61 
#    E [keV]      n       k    Wavelength [nm] 
1.000000000E+00 9.975991422E-01 9.648580657E-04 1.239841975E+00
1.100000000E+00 9.979607000E-01 6.772870513E-04 1.127129068E+00
1.200000000E+00 9.982791779E-01 5.533241084E-04 1.033201645E+00
1.300000000E+00 9.985379675E-01 4.111539709E-04 9.537245958E-01
1.400000000E+00 9.987411490E-01 3.291482794E-04 8.856014104E-01
1.500000000E+00 9.989034009E-01 2.867247234E-04 8.265613164E-01
1.600000000E+00 9.990716786E-01 2.178821737E-04 7.749012341E-01
1.700000000E+00 9.991821794E-01 1.886771209E-04 7.293188086E-01
1.800000000E+00 9.993175647E-01 1.522792329E-04 6.888010970E-01
1.900000000E+00 9.994676457E-01 1.272413765E-04 6.525484077E-01
2.000000000E+00 9.996080248E-01 2.785458622E-04 6.199209873E-01
2.100000000E+00 9.995705891E-01 3.338559695E-04 5.904009403E-01
2.200000000E+00 9.995654756E-01 3.073369638E-04 5.635645339E-01
2.300000000E+00 9.995448660E-01 2.823881283E-04 5.390617281E-01
2.400000000E+00 9.995600394E-01 2.498042603E-04 5.166008227E-01
2.500000000E+00 9.995742250E-01 2.500284002E-04 4.959367898E-01
2.600000000E+00 9.995799549E-01 2.209096932E-04 4.768622979E-01
2.700000000E+00 9.995977689E-01 1.937741533E-04 4.592007313E-01
2.800000000E+00 9.996208868E-01 1.778710323E-04 4.428007052E-01
2.900000000E+00 9.996355441E-01 1.627226864E-04 4.275317154E-01
3.000000000E+00 9.996535241E-01 1.455613728E-04 4.132806582E-01
3.100000000E+00 9.996678685E-01 1.338975738E-04 3.999490241E-01
3.200000000E+00 9.996857269E-01 1.246072366E-04 3.874506171E-01
3.300000000E+00 9.996964731E-01 1.090129698E-04 3.757096893E-01
3.400000000E+00 9.997140604E-01 1.026899506E-04 3.646594043E-01
3.500000000E+00 9.997245634E-01 8.933128124E-05 3.542405642E-01
3.600000000E+00 9.997392496E-01 8.389213588E-05 3.444005485E-01
3.700000000E+00 9.997499502E-01 7.395425796E-05 3.350924256E-01
3.800000000E+00 9.997618686E-01 6.828982820E-05 3.262742038E-01
3.900000000E+00 9.997739239E-01 6.483268371E-05 3.179081986E-01
4.000000000E+00 9.997828239E-01 5.665770873E-05 3.099604936E-01
4.100000000E+00 9.997924627E-01 5.211186612E-05 3.024004816E-01
4.200000000E+00 9.998022278E-01 4.965989056E-05 2.952004701E-01
4.300000000E+00 9.998102587E-01 4.416570018E-05 2.883353429E-01
4.400000000E+00 9.998183226E-01 4.078043438E-05 2.817822670E-01
4.500000000E+00 9.998261151E-01 3.840598150E-05 2.755204388E-01
4.600000000E+00 9.998335931E-01 3.675430649E-05 2.695308640E-01
4.700000000E+00 9.998399917E-01 3.243874830E-05 2.637961648E-01
4.800000000E+00 9.998463779E-01 3.013762526E-05 2.583004114E-01
4.900000000E+00 9.998524334E-01 2.823229930E-05 2.530289744E-01
5.000000000E+00 9.998582770E-01 2.711430025E-05 2.479683949E-01
5.100000000E+00 9.998637803E-01 2.606141892E-05 2.431062695E-01
5.200000000E+00 9.998687174E-01 2.281033346E-05 2.384311490E-01
5.300000000E+00 9.998735556E-01 2.133797706E-05 2.339324480E-01
5.400000000E+00 9.998781313E-01 1.998013929E-05 2.296003657E-01
5.500000000E+00 9.998824982E-01 1.904148450E-05 2.254258136E-01
5.600000000E+00 9.998866572E-01 1.836750338E-05 2.214003526E-01
5.700000000E+00 9.998905993E-01 1.772868286E-05 2.175161359E-01
5.800000000E+00 9.998943392E-01 1.712261909E-05 2.137658577E-01
5.900000000E+00 9.998979372E-01 1.465026349E-05 2.101427076E-01
6.000000000E+00 9.999013199E-01 1.380403942E-05 2.066403291E-01
6.100000000E+00 9.999045371E-01 1.301645760E-05 2.032527827E-01
6.200000000E+00 9.999075996E-01 1.228267183E-05 1.999745120E-01
6.300000000E+00 9.999105142E-01 1.170938182E-05 1.968003134E-01
6.400000000E+00 9.999132888E-01 1.134632237E-05 1.937253085E-01
6.500000000E+00 9.999159363E-01 1.099989028E-05 1.907449192E-01
6.600000000E+00 9.999184644E-01 1.066908550E-05 1.878548446E-01
6.700000000E+00 9.999208801E-01 1.035298205E-05 1.850510410E-01
6.800000000E+00 9.999234431E-01 8.868785451E-06 1.823297021E-01
6.900000000E+00 9.999256876E-01 8.419827694E-06 1.796872427E-01
7.000000000E+00 9.999278348E-01 7.998100305E-06 1.771202821E-01
7.100000000E+00 9.999298903E-01 7.601631785E-06 1.746256302E-01
7.200000000E+00 9.999318592E-01 7.228617066E-06 1.722002742E-01
7.300000000E+00 9.999337353E-01 6.929254471E-06 1.698413664E-01
7.400000000E+00 9.999355141E-01 6.743242709E-06 1.675462128E-01
7.500000000E+00 9.999372223E-01 6.564621702E-06 1.653122633E-01
7.600000000E+00 9.999388634E-01 6.393005034E-06 1.631371019E-01
7.700000000E+00 9.999404411E-01 6.228031215E-06 1.610184383E-01
7.800000000E+00 9.999422788E-01 5.442014622E-06 1.589540993E-01
7.900000000E+00 9.999437847E-01 5.199750928E-06 1.569420221E-01
8.000000000E+00 9.999452324E-01 4.970392719E-06 1.549802468E-01
8.100000000E+00 9.999466250E-01 4.753118685E-06 1.530669104E-01
8.200000000E+00 9.999479652E-01 4.547168537E-06 1.512002408E-01
8.300000000E+00 9.999492557E-01 4.351837829E-06 1.493785512E-01
8.400000000E+00 9.999504834E-01 4.196568798E-06 1.476002351E-01
8.500000000E+00 9.999516416E-01 4.098406842E-06 1.458637617E-01
8.600000000E+00 9.999527597E-01 4.003649194E-06 1.441676715E-01
8.700000000E+00 9.999538394E-01 3.912140235E-06 1.425105718E-01
8.800000000E+00 9.999551889E-01 3.530876770E-06 1.408911335E-01
8.900000000E+00 9.999562547E-01 3.390385284E-06 1.393080870E-01
9.000000000E+00 9.999572830E-01 3.256569811E-06 1.377602194E-01
9.100000000E+00 9.999582756E-01 3.129051226E-06 1.362463708E-01
9.200000000E+00 9.999592341E-01 3.007475562E-06 1.347654320E-01
9.300000000E+00 9.999601376E-01 2.913014485E-06 1.333163414E-01
9.400000000E+00 9.999609813E-01 2.851365129E-06 1.318980824E-01
9.500000000E+00 9.999617984E-01 2.791652330E-06 1.305096815E-01
9.600000000E+00 9.999629017E-01 2.581366462E-06 1.291502057E-01
9.700000000E+00 9.999637479E-01 2.486738461E-06 1.278187603E-01
9.800000000E+00 9.999645657E-01 2.396248869E-06 1.265144872E-01
9.900000000E+00 9.999653565E-01 2.309681324E-06 1.252365631E-01
1.000000000E+01 9.999660525E-01 2.260474270E-06 1.239841975E-01
1.010000000E+01 9.999669782E-01 2.149352638E-06 1.227566311E-01
1.020000000E+01 9.999677503E-01 2.074261330E-06 1.215531348E-01
1.030000000E+01 9.999684871E-01 2.004715724E-06 1.203730072E-01
1.040000000E+01 9.999690902E-01 1.966348845E-06 1.192155745E-01
1.050000000E+01 9.999701058E-01 1.867811018E-06 1.180801881E-01
1.060000000E+01 9.999709723E-01 1.814164738E-06 1.169662240E-01
1.070000000E+01 9.999719659E-01 1.819938576E-06 1.158730817E-01
1.080000000E+01 9.999731364E-01 2.214940549E-06 1.148001828E-01
1.090000000E+01 9.999737961E-01 3.153416511E-06 1.137469701E-01
1.100000000E+01 9.999738338E-01 3.823164392E-06 1.127129068E-01
1.110000000E+01 9.999737209E-01 3.940437805E-06 1.116974752E-01
1.120000000E+01 9.999738316E-01 3.831276335E-06 1.107001763E-01
1.130000000E+01 9.999742267E-01 3.756516801E-06 1.097205287E-01
1.140000000E+01 9.999743913E-01 3.599173815E-06 1.087580679E-01
1.150000000E+01 9.999747598E-01 3.512780499E-06 1.078123456E-01
1.160000000E+01 9.999751931E-01 3.452476374E-06 1.068829288E-01
1.170000000E+01 9.999754563E-01 3.273780097E-06 1.059693995E-01
1.180000000E+01 9.999758364E-01 3.192738882E-06 1.050713538E-01
1.190000000E+01 9.999762408E-01 3.139304865E-06 1.041884012E-01
1.200000000E+01 9.999766493E-01 2.982335884E-06 1.033201645E-01
1.210000000E+01 9.999770367E-01 2.911189433E-06 1.024662789E-01
1.220000000E+01 9.999775565E-01 2.825493782E-06 1.016263914E-01
1.230000000E+01 9.999780970E-01 2.853121916E-06 1.008001605E-01
1.240000000E+01 9.999785669E-01 3.057231448E-06 9.998725601E-02
1.250000000E+01 9.999788289E-01 3.304324934E-06 9.918735797E-02
1.260000000E+01 9.999789668E-01 3.367895309E-06 9.840015671E-02
1.270000000E+01 9.999791929E-01 3.360588767E-06 9.762535233E-02
1.280000000E+01 9.999794018E-01 3.297681205E-06 9.686265426E-02
1.290000000E+01 9.999796766E-01 3.350378280E-06 9.611178098E-02
1.300000000E+01 9.999799676E-01 3.348065686E-06 9.537245958E-02
1.310000000E+01 9.999800413E-01 3.412126163E-06 9.464442554E-02
1.320000000E+01 9.999803046E-01 3.379487925E-06 9.392742232E-02
1.330000000E+01 9.999803649E-01 3.285870896E-06 9.322120110E-02
1.340000000E+01 9.999806318E-01 3.232413961E-06 9.252552049E-02
1.350000000E+01 9.999807743E-01 3.120055519E-06 9.184014627E-02
1.360000000E+01 9.999809794E-01 3.039806433E-06 9.116485107E-02
1.370000000E+01 9.999812325E-01 2.984954222E-06 9.049941420E-02
1.380000000E+01 9.999815035E-01 2.941850755E-06 8.984362135E-02
1.390000000E+01 9.999816310E-01 2.814519811E-06 8.919726436E-02
1.400000000E+01 9.999818433E-01 2.744008354E-06 8.856014104E-02
1.410000000E+01 9.999820874E-01 2.697497358E-06 8.793205493E-02
1.420000000E+01 9.999823389E-01 2.659638216E-06 8.731281511E-02
1.430000000E+01 9.999824880E-01 2.545647035E-06 8.670223598E-02
1.440000000E+01 9.999826964E-01 2.483449469E-06 8.610013712E-02
1.450000000E+01 9.999829012E-01 2.423086433E-06 8.550634307E-02
1.460000000E+01 9.999831121E-01 2.372162980E-06 8.492068319E-02
1.470000000E+01 9.999833411E-01 2.339998431E-06 8.434299147E-02
1.480000000E+01 9.999835654E-01 2.308483660E-06 8.377310639E-02
1.490000000E+01 9.999837073E-01 2.198453210E-06 8.321087078E-02
1.500000000E+01 9.999839012E-01 2.146265799E-06 8.265613164E-02
1.510000000E+01 9.999840919E-01 2.095738965E-06 8.210874004E-02
1.520000000E+01 9.999843005E-01 2.068254161E-06 8.156855096E-02
1.530000000E+01 9.999845051E-01 2.041306512E-06 8.103542318E-02
1.540000000E+01 9.999847057E-01 2.014882111E-06 8.050921913E-02
1.550000000E+01 9.999848378E-01 1.908678184E-06 7.998980481E-02
1.560000000E+01 9.999850162E-01 1.865144439E-06 7.947704965E-02
1.570000000E+01 9.999851915E-01 1.822802182E-06 7.897082641E-02
1.580000000E+01 9.999853637E-01 1.781612261E-06 7.847101105E-02
1.590000000E+01 9.999855442E-01 1.755487526E-06 7.797748268E-02
1.600000000E+01 9.999857243E-01 1.733612506E-06 7.749012341E-02
1.610000000E+01 9.999859011E-01 1.712143827E-06 7.700881830E-02
1.620000000E+01 9.999860746E-01 1.691071489E-06 7.653345522E-02
1.630000000E+01 9.999861951E-01 1.593974795E-06 7.606392482E-02
1.640000000E+01 9.999863531E-01 1.559385731E-06 7.560012040E-02
1.650000000E+01 9.999865083E-01 1.525697684E-06 7.514193785E-02
1.660000000E+01 9.999866609E-01 1.492882464E-06 7.468927558E-02
1.670000000E+01 9.999868196E-01 1.474137982E-06 7.424203441E-02
1.680000000E+01 9.999869760E-01 1.456640951E-06 7.380011753E-02
1.690000000E+01 9.999871297E-01 1.439453597E-06 7.336343045E-02
1.700000000E+01 9.999872531E-01 1.370326247E-06 7.293188086E-02
1.710000000E+01 9.999873950E-01 1.341604320E-06 7.250537863E-02
1.720000000E+01 9.999875345E-01 1.313602203E-06 7.208383573E-02
1.730000000E+01 9.999876718E-01 1.286298252E-06 7.166716616E-02
1.740000000E+01 9.999878068E-01 1.259671587E-06 7.125528590E-02
1.750000000E+01 9.999879458E-01 1.245259342E-06 7.084811283E-02
1.760000000E+01 9.999880823E-01 1.231148869E-06 7.044556674E-02
1.770000000E+01 9.999882166E-01 1.217276880E-06 7.004756919E-02
1.780000000E+01 9.999883301E-01 1.160344032E-06 6.965404352E-02
1.790000000E+01 9.999884557E-01 1.136998538E-06 6.926491478E-02
1.800000000E+01 9.999885792E-01 1.114213228E-06 6.888010970E-02
1.810000000E+01 9.999887008E-01 1.091971981E-06 6.849955661E-02
1.820000000E+01 9.999888227E-01 1.075439091E-06 6.812318542E-02
1.830000000E+01 9.999889445E-01 1.063717772E-06 6.775092757E-02
1.840000000E+01 9.999890643E-01 1.052187041E-06 6.738271601E-02
1.850000000E+01 9.999891822E-01 1.040842789E-06 6.701848511E-02
1.860000000E+01 9.999892843E-01 9.895696607E-07 6.665817068E-02
1.870000000E+01 9.999893956E-01 9.705187187E-07 6.630170987E-02
1.880000000E+01 9.999895052E-01 9.519054614E-07 6.594904120E-02
1.890000000E+01 9.999896132E-01 9.337178262E-07 6.560010448E-02
1.900000000E+01 9.999897195E-01 9.159441410E-07 6.525484077E-02
1.910000000E+01 9.999898253E-01 9.020561464E-07 6.491319239E-02
1.920000000E+01 9.999899310E-01 8.926841980E-07 6.457510284E-02
1.930000000E+01 9.999900351E-01 8.834575499E-07 6.424051682E-02
1.940000000E+01 9.999901376E-01 8.743732138E-07 6.390938013E-02
1.950000000E+01 9.999902385E-01 8.654282781E-07 6.358163972E-02
1.960000000E+01 9.999903274E-01 8.184941427E-07 6.325724360E-02
1.970000000E+01 9.999904235E-01 8.035045586E-07 6.293614084E-02
1.980000000E+01 9.999905182E-01 7.888422797E-07 6.261828154E-02
1.990000000E+01 9.999906115E-01 7.744987336E-07 6.230361681E-02
2.000000000E+01 9.999907035E-01 7.604656111E-07 6.199209873E-02
2.010000000E+01 9.999907950E-01 7.502899187E-07 6.168368033E-02
2.020000000E+01 9.999908859E-01 7.428796933E-07 6.137831557E-02
2.030000000E+01 9.999909755E-01 7.355787087E-07 6.107595934E-02
2.040000000E+01 9.999910638E-01 7.283848281E-07 6.077656738E-02
2.050000000E+01 9.999911507E-01 7.212959668E-07 6.048009632E-02
2.060000000E+01 9.999912364E-01 7.143100906E-07 6.018650362E-02
2.070000000E+01 9.999913133E-01 6.713008817E-07 5.989574756E-02
2.080000000E+01 9.999913955E-01 6.596192587E-07 5.960778724E-02
2.090000000E+01 9.999914766E-01 6.481796229E-07 5.932258252E-02
2.100000000E+01 9.999915565E-01 6.369759631E-07 5.904009403E-02
2.110000000E+01 9.999916353E-01 6.260024436E-07 5.876028316E-02
2.120000000E+01 9.999917130E-01 6.152533978E-07 5.848311201E-02
2.130000000E+01 9.999917905E-01 6.085177959E-07 5.820854341E-02
2.140000000E+01 9.999918670E-01 6.028440013E-07 5.793654087E-02
2.150000000E+01 9.999919425E-01 5.972491916E-07 5.766706859E-02
2.160000000E+01 9.999920169E-01 5.917319076E-07 5.740009142E-02
2.170000000E+01 9.999920903E-01 5.862907236E-07 5.713557487E-02
2.180000000E+01 9.999921592E-01 5.557265299E-07 5.687348507E-02
2.190000000E+01 9.999922301E-01 5.464894524E-07 5.661378879E-02
2.200000000E+01 9.999923000E-01 5.374345732E-07 5.635645339E-02
2.210000000E+01 9.999923690E-01 5.285575859E-07 5.610144681E-02
2.220000000E+01 9.999924370E-01 5.198543038E-07 5.584873759E-02
2.230000000E+01 9.999925041E-01 5.113206557E-07 5.559829482E-02
2.240000000E+01 9.999925705E-01 5.037939907E-07 5.535008815E-02
2.250000000E+01 9.999926364E-01 4.993257734E-07 5.510408776E-02
2.260000000E+01 9.999927014E-01 4.949167374E-07 5.486026436E-02
2.270000000E+01 9.999927656E-01 4.905658421E-07 5.461858919E-02
2.280000000E+01 9.999928289E-01 4.862720698E-07 5.437903397E-02
2.290000000E+01 9.999928914E-01 4.820344249E-07 5.414157094E-02
2.300000000E+01 9.999929531E-01 4.778519334E-07 5.390617281E-02
2.310000000E+01 9.999930122E-01 4.496509293E-07 5.367281275E-02
2.320000000E+01 9.999930721E-01 4.425952583E-07 5.344146442E-02
2.330000000E+01 9.999931312E-01 4.356710178E-07 5.321210191E-02
2.340000000E+01 9.999931896E-01 4.288752733E-07 5.298469977E-02
2.350000000E+01 9.999932472E-01 4.222051671E-07 5.275923296E-02
2.360000000E+01 9.999933041E-01 4.156579165E-07 5.253567689E-02
2.370000000E+01 9.999933603E-01 4.092308107E-07 5.231400737E-02
2.380000000E+01 9.999934158E-01 4.029212095E-07 5.209420061E-02
2.390000000E+01 9.999934706E-01 3.982685710E-07 5.187623325E-02
2.400000000E+01 9.999935249E-01 3.949565806E-07 5.166008227E-02
2.410000000E+01 9.999935786E-01 3.916857327E-07 5.144572509E-02
2.420000000E+01 9.999936315E-01 3.884553487E-07 5.123313945E-02
2.430000000E+01 9.999936838E-01 3.852647639E-07 5.102230348E-02
2.440000000E+01 9.999937355E-01 3.821133271E-07 5.081319568E-02
2.450000000E+01 9.999937865E-01 3.790004006E-07 5.060579488E-02
2.460000000E+01 9.999938370E-01 3.759253593E-07 5.040008027E-02
2.470000000E+01 9.999938866E-01 3.518467641E-07 5.019603136E-02
2.480000000E+01 9.999939358E-01 3.466667453E-07 4.999362801E-02
2.490000000E+01 9.999939844E-01 3.415771332E-07 4.979285038E-02
2.500000000E+01 9.999940324E-01 3.365760369E-07 4.959367898E-02
2.510000000E+01 9.999940798E-01 3.316616121E-07 4.939609460E-02
2.520000000E+01 9.999941267E-01 3.268320594E-07 4.920007836E-02
2.530000000E+01 9.999941730E-01 3.220856234E-07 4.900561164E-02
2.540000000E+01 9.999942188E-01 3.174205913E-07 4.881267616E-02
2.550000000E+01 9.999942640E-01 3.128352918E-07 4.862125391E-02
2.560000000E+01 9.999943088E-01 3.083280938E-07 4.843132713E-02
2.570000000E+01 9.999943530E-01 3.057909656E-07 4.824287839E-02
2.580000000E+01 9.999943966E-01 3.034250869E-07 4.805589049E-02
2.590000000E+01 9.999944398E-01 3.010865593E-07 4.787034651E-02
2.600000000E+01 9.999944825E-01 2.987749628E-07 4.768622979E-02
2.610000000E+01 9.999945247E-01 2.964898855E-07 4.750352393E-02
2.620000000E+01 9.999945664E-01 2.942309231E-07 4.732221277E-02
2.630000000E+01 9.999946077E-01 2.919976794E-07 4.714228040E-02
2.640000000E+01 9.999946484E-01 2.897897654E-07 4.696371116E-02
2.650000000E+01 9.999946888E-01 2.876067994E-07 4.678648961E-02
2.660000000E+01 9.999947286E-01 2.854484070E-07 4.661060055E-02
2.670000000E+01 9.999947680E-01 2.833142208E-07 4.643602901E-02
2.680000000E+01 9.999948083E-01 2.607380026E-07 4.626276025E-02
2.690000000E+01 9.999948469E-01 2.571821611E-07 4.609077972E-02
2.700000000E+01 9.999948851E-01 2.536836657E-07 4.592007313E-02
2.710000000E+01 9.999949229E-01 2.502414084E-07 4.575062637E-02
2.720000000E+01 9.999949602E-01 2.468543067E-07 4.558242554E-02
2.730000000E+01 9.999949972E-01 2.435213025E-07 4.541545694E-02
2.740000000E+01 9.999950337E-01 2.402413613E-07 4.524970710E-02
2.750000000E+01 9.999950698E-01 2.370134721E-07 4.508516271E-02
2.760000000E+01 9.999951056E-01 2.338366464E-07 4.492181067E-02
2.770000000E+01 9.999951410E-01 2.307099179E-07 4.475963807E-02
2.780000000E+01 9.999951759E-01 2.276323414E-07 4.459863218E-02
2.790000000E+01 9.999952105E-01 2.246029931E-07 4.443878045E-02
2.800000000E+01 9.999952448E-01 2.218377918E-07 4.428007052E-02
2.810000000E+01 9.999952786E-01 2.202616846E-07 4.412249020E-02
2.820000000E+01 9.999953120E-01 2.187023148E-07 4.396602747E-02
2.830000000E+01 9.999953451E-01 2.171594461E-07 4.381067048E-02
2.840000000E+01 9.999953778E-01 2.156328467E-07 4.365640756E-02
2.850000000E+01 9.999954102E-01 2.141222885E-07 4.350322718E-02
2.860000000E+01 9.999954422E-01 2.126275476E-07 4.335111799E-02
2.870000000E+01 9.999954739E-01 2.111484039E-07 4.320006880E-02
2.880000000E+01 9.999955053E-01 2.096846412E-07 4.305006856E-02
2.890000000E+01 9.999955363E-01 2.082360470E-07 4.290110639E-02
2.900000000E+01 9.999955671E-01 2.068024124E-07 4.275317154E-02
2.910000000E+01 9.999955975E-01 2.053835321E-07 4.260625342E-02
2.920000000E+01 9.999956276E-01 2.039792044E-07 4.246034160E-02
2.930000000E+01 9.999956574E-01 2.025892309E-07 4.231542575E-02
2.940000000E+01 9.999956869E-01 2.012134166E-07 4.217149573E-02
2.950000000E+01 9.999957161E-01 1.998515700E-07 4.202854151E-02
2.960000000E+01 9.999957450E-01 1.985035026E-07 4.188655320E-02
2.970000000E+01 9.999957736E-01 1.971690290E-07 4.174552103E-02
2.980000000E+01 9.999958019E-01 1.958479672E-07 4.160543539E-02
2.990000000E+01 9.999958331E-01 1.742940642E-07 4.146628678E-02
3.000000000E+01 9.999958610E-01 1.721547902E-07 4.132806582E-02
3.010000000E+01 9.999958886E-01 1.700465139E-07 4.119076328E-02
3.020000000E+01 9.999959159E-01 1.679686974E-07 4.105437002E-02
3.030000000E+01 9.999959430E-01 1.659208137E-07 4.091887705E-02
3.040000000E+01 9.999959698E-01 1.639023466E-07 4.078427548E-02
3.050000000E+01 9.999959963E-01 1.619127905E-07 4.065055654E-02
3.060000000E+01 9.999960226E-01 1.599516497E-07 4.051771159E-02
3.070000000E+01 9.999960486E-01 1.580184387E-07 4.038573207E-02
3.080000000E+01 9.999960743E-01 1.561126817E-07 4.025460956E-02
3.090000000E+01 9.999960998E-01 1.542339123E-07 4.012433575E-02
3.100000000E+01 9.999961251E-01 1.523816736E-07 3.999490241E-02
3.110000000E+01 9.999961501E-01 1.505555176E-07 3.986630143E-02
3.120000000E+01 9.999961749E-01 1.487550053E-07 3.973852483E-02
3.130000000E+01 9.999961994E-01 1.469797063E-07 3.961156468E-02
3.140000000E+01 9.999962237E-01 1.452291988E-07 3.948541320E-02
3.150000000E+01 9.999962478E-01 1.435030691E-07 3.936006269E-02
3.160000000E+01 9.999962716E-01 1.418009116E-07 3.923550552E-02
3.170000000E+01 9.999962952E-01 1.401223289E-07 3.911173421E-02
