# 04/03/2022 
# Density retrieved from www.chemicool.com/densities.html 
# Includes the real (n) and complex (k) part of the  refractive index. 
# Element, P  (Z = 15) 
# Nominal density, g cm-3 =  1.82 
#    E [keV]      n       k    Wavelength [nm] 
1.000000000E+00 9.996554303E-01 3.639514818E-05 1.239841975E+00
1.100000000E+00 9.997180296E-01 2.427884708E-05 1.127129068E+00
1.200000000E+00 9.997649669E-01 1.771808083E-05 1.033201645E+00
1.300000000E+00 9.998007216E-01 1.373691448E-05 9.537245958E-01
1.400000000E+00 9.998302142E-01 1.007638806E-05 8.856014104E-01
1.500000000E+00 9.998527123E-01 8.245210428E-06 8.265613164E-01
1.600000000E+00 9.998728447E-01 6.163346909E-06 7.749012341E-01
1.700000000E+00 9.998880806E-01 5.121643837E-06 7.293188086E-01
1.800000000E+00 9.999025592E-01 3.978077250E-06 6.888010970E-01
1.900000000E+00 9.999149266E-01 3.255140836E-06 6.525484077E-01
2.000000000E+00 9.999256671E-01 2.734442026E-06 6.199209873E-01
2.100000000E+00 9.999431817E-01 3.153482354E-06 5.904009403E-01
2.200000000E+00 9.999424529E-01 1.997703579E-05 5.635645339E-01
2.300000000E+00 9.999410953E-01 1.738628514E-05 5.390617281E-01
2.400000000E+00 9.999427225E-01 1.479768419E-05 5.166008227E-01
2.500000000E+00 9.999457900E-01 1.289920478E-05 4.959367898E-01
2.600000000E+00 9.999488715E-01 1.126736161E-05 4.768622979E-01
2.700000000E+00 9.999516787E-01 9.715030299E-06 4.592007313E-01
2.800000000E+00 9.999546612E-01 8.659995518E-06 4.428007052E-01
2.900000000E+00 9.999572258E-01 7.525198558E-06 4.275317154E-01
3.000000000E+00 9.999597329E-01 6.670134393E-06 4.132806582E-01
3.100000000E+00 9.999620600E-01 5.927519440E-06 3.999490241E-01
3.200000000E+00 9.999642154E-01 5.291874503E-06 3.874506171E-01
3.300000000E+00 9.999662085E-01 4.740486403E-06 3.757096893E-01
3.400000000E+00 9.999680504E-01 4.255328650E-06 3.646594043E-01
3.500000000E+00 9.999697628E-01 3.829218060E-06 3.542405642E-01
3.600000000E+00 9.999713499E-01 3.454790198E-06 3.444005485E-01
3.700000000E+00 9.999728427E-01 3.185580947E-06 3.350924256E-01
3.800000000E+00 9.999741897E-01 2.833882678E-06 3.262742038E-01
3.900000000E+00 9.999754685E-01 2.608761963E-06 3.179081986E-01
4.000000000E+00 9.999766797E-01 2.479954341E-06 3.099604936E-01
4.100000000E+00 9.999777494E-01 2.142687157E-06 3.024004816E-01
4.200000000E+00 9.999787858E-01 1.999102785E-06 2.952004701E-01
4.300000000E+00 9.999797610E-01 1.907202440E-06 2.883353429E-01
4.400000000E+00 9.999806399E-01 1.650114606E-06 2.817822670E-01
4.500000000E+00 9.999814800E-01 1.516922247E-06 2.755204388E-01
4.600000000E+00 9.999822756E-01 1.447162323E-06 2.695308640E-01
4.700000000E+00 9.999830218E-01 1.386236068E-06 2.637961648E-01
4.800000000E+00 9.999837134E-01 1.193497135E-06 2.583004114E-01
4.900000000E+00 9.999843688E-01 1.104291190E-06 2.530289744E-01
5.000000000E+00 9.999849854E-01 1.022770187E-06 2.479683949E-01
5.100000000E+00 9.999855674E-01 9.665529990E-07 2.431062695E-01
5.200000000E+00 9.999861172E-01 9.297353367E-07 2.384311490E-01
5.300000000E+00 9.999866361E-01 8.949819689E-07 2.339324480E-01
5.400000000E+00 9.999871305E-01 7.667932922E-07 2.296003657E-01
5.500000000E+00 9.999875952E-01 7.152855502E-07 2.254258136E-01
5.600000000E+00 9.999880352E-01 6.677576523E-07 2.214003526E-01
5.700000000E+00 9.999884522E-01 6.238476742E-07 2.175161359E-01
5.800000000E+00 9.999888475E-01 5.883251625E-07 2.137658577E-01
5.900000000E+00 9.999892224E-01 5.685509470E-07 2.101427076E-01
6.000000000E+00 9.999895786E-01 5.497571796E-07 2.066403291E-01
6.100000000E+00 9.999899175E-01 5.318800985E-07 2.032527827E-01
6.200000000E+00 9.999902495E-01 4.537182196E-07 1.999745120E-01
6.300000000E+00 9.999905586E-01 4.267125042E-07 1.968003134E-01
6.400000000E+00 9.999908532E-01 4.015449801E-07 1.937253085E-01
6.500000000E+00 9.999911342E-01 3.780683950E-07 1.907449192E-01
6.600000000E+00 9.999914016E-01 3.614783702E-07 1.878548446E-01
6.700000000E+00 9.999916563E-01 3.507684965E-07 1.850510410E-01
6.800000000E+00 9.999918999E-01 3.405276342E-07 1.823297021E-01
6.900000000E+00 9.999921330E-01 3.307287924E-07 1.796872427E-01
7.000000000E+00 9.999923652E-01 2.850589630E-07 1.771202821E-01
7.100000000E+00 9.999925806E-01 2.698698494E-07 1.746256302E-01
7.200000000E+00 9.999927869E-01 2.556036497E-07 1.722002742E-01
7.300000000E+00 9.999929848E-01 2.421943370E-07 1.698413664E-01
7.400000000E+00 9.999931747E-01 2.295813618E-07 1.675462128E-01
7.500000000E+00 9.999933555E-01 2.233421485E-07 1.653122633E-01
7.600000000E+00 9.999935292E-01 2.175033908E-07 1.631371019E-01
7.700000000E+00 9.999936962E-01 2.118906367E-07 1.610184383E-01
7.800000000E+00 9.999938568E-01 2.064923710E-07 1.589540993E-01
7.900000000E+00 9.999940190E-01 1.787346495E-07 1.569420221E-01
8.000000000E+00 9.999941689E-01 1.702002189E-07 1.549802468E-01
8.100000000E+00 9.999943133E-01 1.621287618E-07 1.530669104E-01
8.200000000E+00 9.999944525E-01 1.544907040E-07 1.512002408E-01
8.300000000E+00 9.999945865E-01 1.472586640E-07 1.493785512E-01
8.400000000E+00 9.999947154E-01 1.416553208E-07 1.476002351E-01
8.500000000E+00 9.999948390E-01 1.383418607E-07 1.458637617E-01
8.600000000E+00 9.999949583E-01 1.351433131E-07 1.441676715E-01
8.700000000E+00 9.999950735E-01 1.320544251E-07 1.425105718E-01
8.800000000E+00 9.999951849E-01 1.290702407E-07 1.408911335E-01
8.900000000E+00 9.999952983E-01 1.124300827E-07 1.393080870E-01
9.000000000E+00 9.999954032E-01 1.076194330E-07 1.377602194E-01
9.100000000E+00 9.999955046E-01 1.030419302E-07 1.362463708E-01
9.200000000E+00 9.999956027E-01 9.868426644E-08 1.347654320E-01
9.300000000E+00 9.999956976E-01 9.453401632E-08 1.333163414E-01
9.400000000E+00 9.999957895E-01 9.057956987E-08 1.318980824E-01
9.500000000E+00 9.999958777E-01 8.853387983E-08 1.305096815E-01
9.600000000E+00 9.999959631E-01 8.669903054E-08 1.291502057E-01
9.700000000E+00 9.999960459E-01 8.492063614E-08 1.278187603E-01
9.800000000E+00 9.999961262E-01 8.319640415E-08 1.265144872E-01
9.900000000E+00 9.999962041E-01 8.152415727E-08 1.252365631E-01
1.000000000E+01 9.999962840E-01 7.126419962E-08 1.239841975E-01
1.010000000E+01 9.999963579E-01 6.852801590E-08 1.227566311E-01
1.020000000E+01 9.999964296E-01 6.591051612E-08 1.215531348E-01
1.030000000E+01 9.999964992E-01 6.340563625E-08 1.203730072E-01
1.040000000E+01 9.999965668E-01 6.100767236E-08 1.192155745E-01
1.050000000E+01 9.999966325E-01 5.871125628E-08 1.180801881E-01
1.060000000E+01 9.999966963E-01 5.651133296E-08 1.169662240E-01
1.070000000E+01 9.999967578E-01 5.534638260E-08 1.158730817E-01
1.080000000E+01 9.999968175E-01 5.432619465E-08 1.148001828E-01
1.090000000E+01 9.999968757E-01 5.333395627E-08 1.137469701E-01
1.100000000E+01 9.999969322E-01 5.236865574E-08 1.127129068E-01
1.110000000E+01 9.999969872E-01 5.142932671E-08 1.116974752E-01
1.120000000E+01 9.999970408E-01 5.051504579E-08 1.107001763E-01
1.130000000E+01 9.999970962E-01 4.402563508E-08 1.097205287E-01
1.140000000E+01 9.999971474E-01 4.251382229E-08 1.087580679E-01
1.150000000E+01 9.999971972E-01 4.106040265E-08 1.078123456E-01
1.160000000E+01 9.999972457E-01 3.966272027E-08 1.068829288E-01
1.170000000E+01 9.999972930E-01 3.831825976E-08 1.059693995E-01
1.180000000E+01 9.999973391E-01 3.702463770E-08 1.050713538E-01
1.190000000E+01 9.999973840E-01 3.577959473E-08 1.041884012E-01
1.200000000E+01 9.999974275E-01 3.493654843E-08 1.033201645E-01
1.210000000E+01 9.999974699E-01 3.436147103E-08 1.024662789E-01
1.220000000E+01 9.999975112E-01 3.380047685E-08 1.016263914E-01
1.230000000E+01 9.999975515E-01 3.325310975E-08 1.008001605E-01
1.240000000E+01 9.999975908E-01 3.271893193E-08 9.998725601E-02
1.250000000E+01 9.999976292E-01 3.219752303E-08 9.918735797E-02
1.260000000E+01 9.999976667E-01 3.168847930E-08 9.840015671E-02
1.270000000E+01 9.999977056E-01 2.771360383E-08 9.762535233E-02
1.280000000E+01 9.999977416E-01 2.686146151E-08 9.686265426E-02
1.290000000E+01 9.999977767E-01 2.603873245E-08 9.611178098E-02
1.300000000E+01 9.999978111E-01 2.524422089E-08 9.537245958E-02
1.310000000E+01 9.999978446E-01 2.447678768E-08 9.464442554E-02
1.320000000E+01 9.999978774E-01 2.373534713E-08 9.392742232E-02
1.330000000E+01 9.999979095E-01 2.301886421E-08 9.322120110E-02
1.340000000E+01 9.999979408E-01 2.232635182E-08 9.252552049E-02
1.350000000E+01 9.999979713E-01 2.181820459E-08 9.184014627E-02
1.360000000E+01 9.999980010E-01 2.149852826E-08 9.116485107E-02
1.370000000E+01 9.999980301E-01 2.118582656E-08 9.049941420E-02
1.380000000E+01 9.999980585E-01 2.087989806E-08 8.984362135E-02
1.390000000E+01 9.999980864E-01 2.058054856E-08 8.919726436E-02
1.400000000E+01 9.999981136E-01 2.028759075E-08 8.856014104E-02
1.410000000E+01 9.999981403E-01 2.000084395E-08 8.793205493E-02
1.420000000E+01 9.999981664E-01 1.972013383E-08 8.731281511E-02
1.430000000E+01 9.999981936E-01 1.726826492E-08 8.670223598E-02
1.440000000E+01 9.999982187E-01 1.679265072E-08 8.610013712E-02
1.450000000E+01 9.999982434E-01 1.633168776E-08 8.550634307E-02
1.460000000E+01 9.999982675E-01 1.588484463E-08 8.492068319E-02
1.470000000E+01 9.999982912E-01 1.545161236E-08 8.434299147E-02
1.480000000E+01 9.999983144E-01 1.503150334E-08 8.377310639E-02
1.490000000E+01 9.999983371E-01 1.462405028E-08 8.321087078E-02
1.500000000E+01 9.999983593E-01 1.422880525E-08 8.265613164E-02
1.510000000E+01 9.999983811E-01 1.388599040E-08 8.210874004E-02
1.520000000E+01 9.999984023E-01 1.370388102E-08 8.156855096E-02
1.530000000E+01 9.999984231E-01 1.352533073E-08 8.103542318E-02
1.540000000E+01 9.999984436E-01 1.335024739E-08 8.050921913E-02
1.550000000E+01 9.999984636E-01 1.317854181E-08 7.998980481E-02
1.560000000E+01 9.999984832E-01 1.301012767E-08 7.947704965E-02
1.570000000E+01 9.999985025E-01 1.284492138E-08 7.897082641E-02
1.580000000E+01 9.999985214E-01 1.268284198E-08 7.847101105E-02
1.590000000E+01 9.999985399E-01 1.252381105E-08 7.797748268E-02
1.600000000E+01 9.999985592E-01 1.100768963E-08 7.749012341E-02
1.610000000E+01 9.999985772E-01 1.073476059E-08 7.700881830E-02
1.620000000E+01 9.999985948E-01 1.046937667E-08 7.653345522E-02
1.630000000E+01 9.999986121E-01 1.021129235E-08 7.606392482E-02
1.640000000E+01 9.999986291E-01 9.960271399E-09 7.560012040E-02
1.650000000E+01 9.999986457E-01 9.716086490E-09 7.514193785E-02
1.660000000E+01 9.999986621E-01 9.478518810E-09 7.468927558E-02
1.670000000E+01 9.999986782E-01 9.247357700E-09 7.424203441E-02
1.680000000E+01 9.999986940E-01 9.022400303E-09 7.380011753E-02
1.690000000E+01 9.999987094E-01 8.819823613E-09 7.336343045E-02
1.700000000E+01 9.999987246E-01 8.716366166E-09 7.293188086E-02
1.710000000E+01 9.999987395E-01 8.614718450E-09 7.250537863E-02
1.720000000E+01 9.999987541E-01 8.514838501E-09 7.208383573E-02
1.730000000E+01 9.999987684E-01 8.416685563E-09 7.166716616E-02
1.740000000E+01 9.999987825E-01 8.320220049E-09 7.125528590E-02
1.750000000E+01 9.999987964E-01 8.225403501E-09 7.084811283E-02
1.760000000E+01 9.999988101E-01 8.132198548E-09 7.044556674E-02
1.770000000E+01 9.999988235E-01 8.040568873E-09 7.004756919E-02
1.780000000E+01 9.999988366E-01 7.950479176E-09 6.965404352E-02
1.790000000E+01 9.999988504E-01 7.005633449E-09 6.926491478E-02
1.800000000E+01 9.999988632E-01 6.849720671E-09 6.888010970E-02
1.810000000E+01 9.999988758E-01 6.697671815E-09 6.849955661E-02
1.820000000E+01 9.999988882E-01 6.549374143E-09 6.812318542E-02
1.830000000E+01 9.999989004E-01 6.404718748E-09 6.775092757E-02
1.840000000E+01 9.999989123E-01 6.263600409E-09 6.738271601E-02
1.850000000E+01 9.999989241E-01 6.125917440E-09 6.701848511E-02
1.860000000E+01 9.999989357E-01 5.991571564E-09 6.665817068E-02
1.870000000E+01 9.999989471E-01 5.860467772E-09 6.630170987E-02
1.880000000E+01 9.999989584E-01 5.732514208E-09 6.594904120E-02
1.890000000E+01 9.999989694E-01 5.630570766E-09 6.560010448E-02
1.900000000E+01 9.999989802E-01 5.571457571E-09 6.525484077E-02
1.910000000E+01 9.999989909E-01 5.513270424E-09 6.491319239E-02
1.920000000E+01 9.999990014E-01 5.455990081E-09 6.457510284E-02
1.930000000E+01 9.999990117E-01 5.399597797E-09 6.424051682E-02
1.940000000E+01 9.999990218E-01 5.344075309E-09 6.390938013E-02
1.950000000E+01 9.999990319E-01 5.289404821E-09 6.358163972E-02
1.960000000E+01 9.999990417E-01 5.235568990E-09 6.325724360E-02
1.970000000E+01 9.999990514E-01 5.182550912E-09 6.293614084E-02
1.980000000E+01 9.999990610E-01 5.130334107E-09 6.261828154E-02
1.990000000E+01 9.999990709E-01 4.562068059E-09 6.230361681E-02
2.000000000E+01 9.999990802E-01 4.469965584E-09 6.199209873E-02
2.010000000E+01 9.999990894E-01 4.379924634E-09 6.168368033E-02
2.020000000E+01 9.999990984E-01 4.291890920E-09 6.137831557E-02
2.030000000E+01 9.999991073E-01 4.205811819E-09 6.107595934E-02
2.040000000E+01 9.999991161E-01 4.121636314E-09 6.077656738E-02
2.050000000E+01 9.999991247E-01 4.039314940E-09 6.048009632E-02
2.060000000E+01 9.999991332E-01 3.958799730E-09 6.018650362E-02
2.070000000E+01 9.999991416E-01 3.880044158E-09 5.989574756E-02
2.080000000E+01 9.999991499E-01 3.803003096E-09 5.960778724E-02
2.090000000E+01 9.999991581E-01 3.727632763E-09 5.932258252E-02
2.100000000E+01 9.999991661E-01 3.661293300E-09 5.904009403E-02
2.110000000E+01 9.999991740E-01 3.626671335E-09 5.876028316E-02
2.120000000E+01 9.999991818E-01 3.592538148E-09 5.848311201E-02
2.130000000E+01 9.999991894E-01 3.558884580E-09 5.820854341E-02
2.140000000E+01 9.999991970E-01 3.525701689E-09 5.793654087E-02
2.150000000E+01 9.999992044E-01 3.492980736E-09 5.766706859E-02
2.160000000E+01 9.999992118E-01 3.460713189E-09 5.740009142E-02
2.170000000E+01 9.999992190E-01 3.428890708E-09 5.713557487E-02
2.180000000E+01 9.999992262E-01 3.397505145E-09 5.687348507E-02
2.190000000E+01 9.999992332E-01 3.366548540E-09 5.661378879E-02
2.200000000E+01 9.999992402E-01 3.336013110E-09 5.635645339E-02
2.210000000E+01 9.999992470E-01 3.305891250E-09 5.610144681E-02
2.220000000E+01 9.999992542E-01 2.925514910E-09 5.584873759E-02
2.230000000E+01 9.999992609E-01 2.872522411E-09 5.559829482E-02
2.240000000E+01 9.999992675E-01 2.820594757E-09 5.535008815E-02
2.250000000E+01 9.999992740E-01 2.769706762E-09 5.510408776E-02
2.260000000E+01 9.999992805E-01 2.719833931E-09 5.486026436E-02
2.270000000E+01 9.999992868E-01 2.670952445E-09 5.461858919E-02
2.280000000E+01 9.999992931E-01 2.623039133E-09 5.437903397E-02
2.290000000E+01 9.999992993E-01 2.576071456E-09 5.414157094E-02
2.300000000E+01 9.999993054E-01 2.530027489E-09 5.390617281E-02
2.310000000E+01 9.999993114E-01 2.484885895E-09 5.367281275E-02
2.320000000E+01 9.999993173E-01 2.440625914E-09 5.344146442E-02
2.330000000E+01 9.999993232E-01 2.397227340E-09 5.321210191E-02
2.340000000E+01 9.999993290E-01 2.354670507E-09 5.298469977E-02
2.350000000E+01 9.999993347E-01 2.332580204E-09 5.275923296E-02
2.360000000E+01 9.999993403E-01 2.312854456E-09 5.253567689E-02
2.370000000E+01 9.999993459E-01 2.293377873E-09 5.231400737E-02
2.380000000E+01 9.999993514E-01 2.274146278E-09 5.209420061E-02
2.390000000E+01 9.999993568E-01 2.255155578E-09 5.187623325E-02
2.400000000E+01 9.999993621E-01 2.236401767E-09 5.166008227E-02
2.410000000E+01 9.999993674E-01 2.217880921E-09 5.144572509E-02
2.420000000E+01 9.999993726E-01 2.199589198E-09 5.123313945E-02
2.430000000E+01 9.999993778E-01 2.181522833E-09 5.102230348E-02
2.440000000E+01 9.999993829E-01 2.163678140E-09 5.081319568E-02
2.450000000E+01 9.999993879E-01 2.146051508E-09 5.060579488E-02
2.460000000E+01 9.999993929E-01 2.128639397E-09 5.040008027E-02
2.470000000E+01 9.999993980E-01 1.893119534E-09 5.019603136E-02
2.480000000E+01 9.999994029E-01 1.862041696E-09 4.999362801E-02
2.490000000E+01 9.999994077E-01 1.831527252E-09 4.979285038E-02
2.500000000E+01 9.999994124E-01 1.801564188E-09 4.959367898E-02
2.510000000E+01 9.999994171E-01 1.772140789E-09 4.939609460E-02
2.520000000E+01 9.999994218E-01 1.743245631E-09 4.920007836E-02
2.530000000E+01 9.999994263E-01 1.714867570E-09 4.900561164E-02
2.540000000E+01 9.999994309E-01 1.686995737E-09 4.881267616E-02
2.550000000E+01 9.999994353E-01 1.659619530E-09 4.862125391E-02
2.560000000E+01 9.999994398E-01 1.632728604E-09 4.843132713E-02
2.570000000E+01 9.999994441E-01 1.606312865E-09 4.824287839E-02
2.580000000E+01 9.999994484E-01 1.580362467E-09 4.805589049E-02
2.590000000E+01 9.999994527E-01 1.554867797E-09 4.787034651E-02
2.600000000E+01 9.999994569E-01 1.529819477E-09 4.768622979E-02
2.610000000E+01 9.999994611E-01 1.513798342E-09 4.750352393E-02
2.620000000E+01 9.999994652E-01 1.502264682E-09 4.732221277E-02
2.630000000E+01 9.999994692E-01 1.490862335E-09 4.714228040E-02
2.640000000E+01 9.999994733E-01 1.479589314E-09 4.696371116E-02
2.650000000E+01 9.999994772E-01 1.468443672E-09 4.678648961E-02
2.660000000E+01 9.999994812E-01 1.457423495E-09 4.661060055E-02
2.670000000E+01 9.999994850E-01 1.446526909E-09 4.643602901E-02
2.680000000E+01 9.999994889E-01 1.435752072E-09 4.626276025E-02
2.690000000E+01 9.999994927E-01 1.425097177E-09 4.609077972E-02
2.700000000E+01 9.999994964E-01 1.414560450E-09 4.592007313E-02
2.710000000E+01 9.999995001E-01 1.404140151E-09 4.575062637E-02
2.720000000E+01 9.999995038E-01 1.393834570E-09 4.558242554E-02
2.730000000E+01 9.999995074E-01 1.383642030E-09 4.541545694E-02
2.740000000E+01 9.999995110E-01 1.373560883E-09 4.524970710E-02
2.750000000E+01 9.999995147E-01 1.219613476E-09 4.508516271E-02
2.760000000E+01 9.999995183E-01 1.201599037E-09 4.492181067E-02
2.770000000E+01 9.999995217E-01 1.183878368E-09 4.475963807E-02
2.780000000E+01 9.999995252E-01 1.166445835E-09 4.459863218E-02
2.790000000E+01 9.999995286E-01 1.149295926E-09 4.443878045E-02
2.800000000E+01 9.999995320E-01 1.132423255E-09 4.428007052E-02
2.810000000E+01 9.999995353E-01 1.115822552E-09 4.412249020E-02
2.820000000E+01 9.999995386E-01 1.099488668E-09 4.396602747E-02
2.830000000E+01 9.999995419E-01 1.083416565E-09 4.381067048E-02
2.840000000E+01 9.999995451E-01 1.067601316E-09 4.365640756E-02
2.850000000E+01 9.999995483E-01 1.052038103E-09 4.350322718E-02
2.860000000E+01 9.999995515E-01 1.036722212E-09 4.335111799E-02
2.870000000E+01 9.999995546E-01 1.021649034E-09 4.320006880E-02
2.880000000E+01 9.999995577E-01 1.006814056E-09 4.305006856E-02
2.890000000E+01 9.999995607E-01 9.922128679E-10 4.290110639E-02
2.900000000E+01 9.999995638E-01 9.778411503E-10 4.275317154E-02
2.910000000E+01 9.999995668E-01 9.670215461E-10 4.260625342E-02
2.920000000E+01 9.999995697E-01 9.604094523E-10 4.246034160E-02
2.930000000E+01 9.999995727E-01 9.538649436E-10 4.231542575E-02
2.940000000E+01 9.999995756E-01 9.473871020E-10 4.217149573E-02
2.950000000E+01 9.999995784E-01 9.409750249E-10 4.202854151E-02
2.960000000E+01 9.999995813E-01 9.346278253E-10 4.188655320E-02
2.970000000E+01 9.999995841E-01 9.283446309E-10 4.174552103E-02
2.980000000E+01 9.999995869E-01 9.221245839E-10 4.160543539E-02
2.990000000E+01 9.999995897E-01 9.159668409E-10 4.146628678E-02
3.000000000E+01 9.999995924E-01 9.098705727E-10 4.132806582E-02
3.010000000E+01 9.999995951E-01 9.038349637E-10 4.119076328E-02
3.020000000E+01 9.999995978E-01 8.978592117E-10 4.105437002E-02
3.030000000E+01 9.999996004E-01 8.919425279E-10 4.091887705E-02
3.040000000E+01 9.999996030E-01 8.860841363E-10 4.078427548E-02
3.050000000E+01 9.999996056E-01 8.802832738E-10 4.065055654E-02
3.060000000E+01 9.999996082E-01 8.745391895E-10 4.051771159E-02
3.070000000E+01 9.999996109E-01 7.757525677E-10 4.038573207E-02
3.080000000E+01 9.999996134E-01 7.654185318E-10 4.025460956E-02
3.090000000E+01 9.999996159E-01 7.552359177E-10 4.012433575E-02
3.100000000E+01 9.999996184E-01 7.452021167E-10 3.999490241E-02
3.110000000E+01 9.999996209E-01 7.353145723E-10 3.986630143E-02
3.120000000E+01 9.999996233E-01 7.255707794E-10 3.973852483E-02
3.130000000E+01 9.999996257E-01 7.159682827E-10 3.961156468E-02
3.140000000E+01 9.999996281E-01 7.065046759E-10 3.948541320E-02
3.150000000E+01 9.999996304E-01 6.971776004E-10 3.936006269E-02
3.160000000E+01 9.999996328E-01 6.879847444E-10 3.923550552E-02
3.170000000E+01 9.999996351E-01 6.789238416E-10 3.911173421E-02
