# 04/03/2022 
# Density retrieved from www.chemicool.com/densities.html 
# Includes the real (n) and complex (k) part of the  refractive index. 
# Element, Pb  (Z = 82) 
# Nominal density, g cm-3 =  11.34 
#    E [keV]      n       k    Wavelength [nm] 
1.000000000E+00 9.987859143E-01 5.812066821E-04 1.239841975E+00
1.100000000E+00 9.989673385E-01 4.404919136E-04 1.127129068E+00
1.200000000E+00 9.991117744E-01 3.422325447E-04 1.033201645E+00
1.300000000E+00 9.992425667E-01 2.907872021E-04 9.537245958E-01
1.400000000E+00 9.993339464E-01 2.153492817E-04 8.856014104E-01
1.500000000E+00 9.994162757E-01 1.779904937E-04 8.265613164E-01
1.600000000E+00 9.994869610E-01 1.564369574E-04 7.749012341E-01
1.700000000E+00 9.995474533E-01 1.186270324E-04 7.293188086E-01
1.800000000E+00 9.995969103E-01 9.985048866E-05 6.888010970E-01
1.900000000E+00 9.996382242E-01 8.961650505E-05 6.525484077E-01
2.000000000E+00 9.996821152E-01 7.124662063E-05 6.199209873E-01
2.100000000E+00 9.997132465E-01 6.285973303E-05 5.904009403E-01
2.200000000E+00 9.997498556E-01 5.259246272E-05 5.635645339E-01
2.300000000E+00 9.997813587E-01 4.560096283E-05 5.390617281E-01
2.400000000E+00 9.998162196E-01 3.977128156E-05 5.166008227E-01
2.500000000E+00 9.998677755E-01 6.990694351E-05 4.959367898E-01
2.600000000E+00 9.998606606E-01 9.621771919E-05 4.768622979E-01
2.700000000E+00 9.998487166E-01 9.929275960E-05 4.592007313E-01
2.800000000E+00 9.998465600E-01 9.121928634E-05 4.428007052E-01
2.900000000E+00 9.998458625E-01 8.241448482E-05 4.275317154E-01
3.000000000E+00 9.998517119E-01 7.321604236E-05 4.132806582E-01
3.100000000E+00 9.998579513E-01 7.443383783E-05 3.999490241E-01
3.200000000E+00 9.998584187E-01 6.734451033E-05 3.874506171E-01
3.300000000E+00 9.998642725E-01 6.184216216E-05 3.757096893E-01
3.400000000E+00 9.998681998E-01 5.465476453E-05 3.646594043E-01
3.500000000E+00 9.998746804E-01 4.960355200E-05 3.542405642E-01
3.600000000E+00 9.998812820E-01 4.734234786E-05 3.444005485E-01
3.700000000E+00 9.998848026E-01 4.414447099E-05 3.350924256E-01
3.800000000E+00 9.998891824E-01 4.021568910E-05 3.262742038E-01
3.900000000E+00 9.998932689E-01 3.760676652E-05 3.179081986E-01
4.000000000E+00 9.998976396E-01 3.537461079E-05 3.099604936E-01
4.100000000E+00 9.999009758E-01 3.194398154E-05 3.024004816E-01
4.200000000E+00 9.999051442E-01 2.991005552E-05 2.952004701E-01
4.300000000E+00 9.999085636E-01 2.716131072E-05 2.883353429E-01
4.400000000E+00 9.999121011E-01 2.510664884E-05 2.817822670E-01
4.500000000E+00 9.999158799E-01 2.388012361E-05 2.755204388E-01
4.600000000E+00 9.999188167E-01 2.156285441E-05 2.695308640E-01
4.700000000E+00 9.999219019E-01 2.002445288E-05 2.637961648E-01
4.800000000E+00 9.999249610E-01 1.889364394E-05 2.583004114E-01
4.900000000E+00 9.999279926E-01 1.813034387E-05 2.530289744E-01
5.000000000E+00 9.999303509E-01 1.618612781E-05 2.479683949E-01
5.100000000E+00 9.999328773E-01 1.511450815E-05 2.431062695E-01
5.200000000E+00 9.999353182E-01 1.425065771E-05 2.384311490E-01
5.300000000E+00 9.999377360E-01 1.371797025E-05 2.339324480E-01
5.400000000E+00 9.999397867E-01 1.239656611E-05 2.296003657E-01
5.500000000E+00 9.999418642E-01 1.162775276E-05 2.254258136E-01
5.600000000E+00 9.999438363E-01 1.091655570E-05 2.214003526E-01
5.700000000E+00 9.999457705E-01 1.047012482E-05 2.175161359E-01
5.800000000E+00 9.999476244E-01 1.011219844E-05 2.137658577E-01
5.900000000E+00 9.999493848E-01 9.772317020E-06 2.101427076E-01
6.000000000E+00 9.999509071E-01 8.584395738E-06 2.066403291E-01
6.100000000E+00 9.999524677E-01 8.100300838E-06 2.032527827E-01
6.200000000E+00 9.999539552E-01 7.649119238E-06 1.999745120E-01
6.300000000E+00 9.999554024E-01 7.391484007E-06 1.968003134E-01
6.400000000E+00 9.999567852E-01 7.162304694E-06 1.937253085E-01
6.500000000E+00 9.999581046E-01 6.943621308E-06 1.907449192E-01
6.600000000E+00 9.999593351E-01 6.148847492E-06 1.878548446E-01
6.700000000E+00 9.999605332E-01 5.831847217E-06 1.850510410E-01
6.800000000E+00 9.999616790E-01 5.534546962E-06 1.823297021E-01
6.900000000E+00 9.999627757E-01 5.255483035E-06 1.796872427E-01
7.000000000E+00 9.999638260E-01 4.993318607E-06 1.771202821E-01
7.100000000E+00 9.999648378E-01 4.853395521E-06 1.746256302E-01
7.200000000E+00 9.999658077E-01 4.719515204E-06 1.722002742E-01
7.300000000E+00 9.999667381E-01 4.591099047E-06 1.698413664E-01
7.400000000E+00 9.999676310E-01 4.467853692E-06 1.675462128E-01
7.500000000E+00 9.999685274E-01 3.918868245E-06 1.653122633E-01
7.600000000E+00 9.999693572E-01 3.739125336E-06 1.631371019E-01
7.700000000E+00 9.999701546E-01 3.569292966E-06 1.610184383E-01
7.800000000E+00 9.999709213E-01 3.408717629E-06 1.589540993E-01
7.900000000E+00 9.999716588E-01 3.256796137E-06 1.569420221E-01
8.000000000E+00 9.999723677E-01 3.123143427E-06 1.549802468E-01
8.100000000E+00 9.999730457E-01 3.046504791E-06 1.530669104E-01
8.200000000E+00 9.999736991E-01 2.972652876E-06 1.512002408E-01
8.300000000E+00 9.999743291E-01 2.901454193E-06 1.493785512E-01
8.400000000E+00 9.999749367E-01 2.832783154E-06 1.476002351E-01
8.500000000E+00 9.999755229E-01 2.766521514E-06 1.458637617E-01
8.600000000E+00 9.999761699E-01 2.412157086E-06 1.441676715E-01
8.700000000E+00 9.999767263E-01 2.314774656E-06 1.425105718E-01
8.800000000E+00 9.999772635E-01 2.222109087E-06 1.408911335E-01
8.900000000E+00 9.999777824E-01 2.133887011E-06 1.393080870E-01
9.000000000E+00 9.999782836E-01 2.049853581E-06 1.377602194E-01
9.100000000E+00 9.999787681E-01 1.969771035E-06 1.362463708E-01
9.200000000E+00 9.999792366E-01 1.893417385E-06 1.347654320E-01
9.300000000E+00 9.999796822E-01 1.847595687E-06 1.333163414E-01
9.400000000E+00 9.999801122E-01 1.808494239E-06 1.318980824E-01
9.500000000E+00 9.999805287E-01 1.770621063E-06 1.305096815E-01
9.600000000E+00 9.999809322E-01 1.733925249E-06 1.291502057E-01
9.700000000E+00 9.999813234E-01 1.698358497E-06 1.278187603E-01
9.800000000E+00 9.999817026E-01 1.663874958E-06 1.265144872E-01
9.900000000E+00 9.999821828E-01 1.459635151E-06 1.252365631E-01
1.000000000E+01 9.999825522E-01 1.408022798E-06 1.239841975E-01
1.010000000E+01 9.999829103E-01 1.358596244E-06 1.227566311E-01
1.020000000E+01 9.999832574E-01 1.311244675E-06 1.215531348E-01
1.030000000E+01 9.999835942E-01 1.265863852E-06 1.203730072E-01
1.040000000E+01 9.999839208E-01 1.222355663E-06 1.192155745E-01
1.050000000E+01 9.999842379E-01 1.180627708E-06 1.180801881E-01
1.060000000E+01 9.999845456E-01 1.140592923E-06 1.169662240E-01
1.070000000E+01 9.999848341E-01 1.117974557E-06 1.158730817E-01
1.080000000E+01 9.999851136E-01 1.097367173E-06 1.148001828E-01
1.090000000E+01 9.999853855E-01 1.077324359E-06 1.137469701E-01
1.100000000E+01 9.999856500E-01 1.057825678E-06 1.127129068E-01
1.110000000E+01 9.999860072E-01 9.672010544E-07 1.116974752E-01
1.120000000E+01 9.999862748E-01 9.364568616E-07 1.107001763E-01
1.130000000E+01 9.999865348E-01 9.068802458E-07 1.097205287E-01
1.140000000E+01 9.999867876E-01 8.784181276E-07 1.087580679E-01
1.150000000E+01 9.999870334E-01 8.510202527E-07 1.078123456E-01
1.160000000E+01 9.999872674E-01 8.281853368E-07 1.068829288E-01
1.170000000E+01 9.999874841E-01 8.140888226E-07 1.059693995E-01
1.180000000E+01 9.999876954E-01 8.003491735E-07 1.050713538E-01
1.190000000E+01 9.999879942E-01 7.525257217E-07 1.041884012E-01
1.200000000E+01 9.999882201E-01 7.301532359E-07 1.033201645E-01
1.210000000E+01 9.999884398E-01 7.085751439E-07 1.024662789E-01
1.220000000E+01 9.999886428E-01 6.917335417E-07 1.016263914E-01
1.230000000E+01 9.999888267E-01 6.805315642E-07 1.008001605E-01
1.240000000E+01 9.999891126E-01 6.485933979E-07 9.998725601E-02
1.250000000E+01 9.999893280E-01 6.299906457E-07 9.918735797E-02
1.260000000E+01 9.999895137E-01 6.166740951E-07 9.840015671E-02
1.270000000E+01 9.999898005E-01 5.968682518E-07 9.762535233E-02
1.280000000E+01 9.999900696E-01 5.953333453E-07 9.686265426E-02
1.290000000E+01 9.999903792E-01 6.425201395E-07 9.611178098E-02
1.300000000E+01 9.999906596E-01 8.418011198E-07 9.537245958E-02
1.310000000E+01 9.999907920E-01 1.086702083E-06 9.464442554E-02
1.320000000E+01 9.999908377E-01 1.190870451E-06 9.392742232E-02
1.330000000E+01 9.999908332E-01 1.244853350E-06 9.322120110E-02
1.340000000E+01 9.999908152E-01 1.232183168E-06 9.252552049E-02
1.350000000E+01 9.999908762E-01 1.196458005E-06 9.184014627E-02
1.360000000E+01 9.999909687E-01 1.169236809E-06 9.116485107E-02
1.370000000E+01 9.999911001E-01 1.152229955E-06 9.049941420E-02
1.380000000E+01 9.999911586E-01 1.104047206E-06 8.984362135E-02
1.390000000E+01 9.999912574E-01 1.075615740E-06 8.919726436E-02
1.400000000E+01 9.999913818E-01 1.060304679E-06 8.856014104E-02
1.410000000E+01 9.999914770E-01 1.019986743E-06 8.793205493E-02
1.420000000E+01 9.999915841E-01 9.937336278E-07 8.731281511E-02
1.430000000E+01 9.999916940E-01 9.728791257E-07 8.670223598E-02
1.440000000E+01 9.999918090E-01 9.594138330E-07 8.610013712E-02
1.450000000E+01 9.999919222E-01 9.200310786E-07 8.550634307E-02
1.460000000E+01 9.999920328E-01 8.969480137E-07 8.492068319E-02
1.470000000E+01 9.999921410E-01 8.770328045E-07 8.434299147E-02
1.480000000E+01 9.999922468E-01 8.652210496E-07 8.377310639E-02
1.490000000E+01 9.999923903E-01 8.336369403E-07 8.321087078E-02
1.500000000E+01 9.999924988E-01 8.188514080E-07 8.265613164E-02
1.510000000E+01 9.999926650E-01 8.248056082E-07 8.210874004E-02
1.520000000E+01 9.999927998E-01 8.805609971E-07 8.156855096E-02
1.530000000E+01 9.999928892E-01 9.417592384E-07 8.103542318E-02
1.540000000E+01 9.999929738E-01 9.596170484E-07 8.050921913E-02
1.550000000E+01 9.999929947E-01 9.948315280E-07 7.998980481E-02
1.560000000E+01 9.999930531E-01 9.846537566E-07 7.947704965E-02
1.570000000E+01 9.999931296E-01 9.731040398E-07 7.897082641E-02
1.580000000E+01 9.999931985E-01 9.946761241E-07 7.847101105E-02
1.590000000E+01 9.999932772E-01 9.945466638E-07 7.797748268E-02
1.600000000E+01 9.999933051E-01 1.008636446E-06 7.749012341E-02
1.610000000E+01 9.999933625E-01 1.008256833E-06 7.700881830E-02
1.620000000E+01 9.999934008E-01 9.874040051E-07 7.653345522E-02
1.630000000E+01 9.999934499E-01 9.691778104E-07 7.606392482E-02
1.640000000E+01 9.999935295E-01 9.573946031E-07 7.560012040E-02
1.650000000E+01 9.999935696E-01 9.283472488E-07 7.514193785E-02
1.660000000E+01 9.999936283E-01 9.087330820E-07 7.468927558E-02
1.670000000E+01 9.999936917E-01 8.920507247E-07 7.424203441E-02
1.680000000E+01 9.999937665E-01 8.814626793E-07 7.380011753E-02
1.690000000E+01 9.999938401E-01 8.710620308E-07 7.336343045E-02
1.700000000E+01 9.999938721E-01 8.355604280E-07 7.293188086E-02
1.710000000E+01 9.999939318E-01 8.184237215E-07 7.250537863E-02
1.720000000E+01 9.999939909E-01 8.018290268E-07 7.208383573E-02
1.730000000E+01 9.999940602E-01 7.925861182E-07 7.166716616E-02
1.740000000E+01 9.999941282E-01 7.835021116E-07 7.125528590E-02
1.750000000E+01 9.999941952E-01 7.745733855E-07 7.084811283E-02
1.760000000E+01 9.999942292E-01 7.391122694E-07 7.044556674E-02
1.770000000E+01 9.999942866E-01 7.244011812E-07 7.004756919E-02
1.780000000E+01 9.999943432E-01 7.100440123E-07 6.965404352E-02
1.790000000E+01 9.999943990E-01 6.960305123E-07 6.926491478E-02
1.800000000E+01 9.999944568E-01 6.847412655E-07 6.888010970E-02
1.810000000E+01 9.999945179E-01 6.771959648E-07 6.849955661E-02
1.820000000E+01 9.999945779E-01 6.697746952E-07 6.812318542E-02
1.830000000E+01 9.999946370E-01 6.624747530E-07 6.775092757E-02
1.840000000E+01 9.999946732E-01 6.308989257E-07 6.738271601E-02
1.850000000E+01 9.999947258E-01 6.187748484E-07 6.701848511E-02
1.860000000E+01 9.999947777E-01 6.069309427E-07 6.665817068E-02
1.870000000E+01 9.999948288E-01 5.953594248E-07 6.630170987E-02
1.880000000E+01 9.999948792E-01 5.840857008E-07 6.594904120E-02
1.890000000E+01 9.999949333E-01 5.779212511E-07 6.560010448E-02
1.900000000E+01 9.999949865E-01 5.718538784E-07 6.525484077E-02
1.910000000E+01 9.999950388E-01 5.658815550E-07 6.491319239E-02
1.920000000E+01 9.999950904E-01 5.600023060E-07 6.457510284E-02
1.930000000E+01 9.999951252E-01 5.318849215E-07 6.424051682E-02
1.940000000E+01 9.999951723E-01 5.221382949E-07 6.390938013E-02
1.950000000E+01 9.999952187E-01 5.126065329E-07 6.358163972E-02
1.960000000E+01 9.999952644E-01 5.032839394E-07 6.325724360E-02
1.970000000E+01 9.999953095E-01 4.941649954E-07 6.293614084E-02
1.980000000E+01 9.999953558E-01 4.878584340E-07 6.261828154E-02
1.990000000E+01 9.999954024E-01 4.829676535E-07 6.230361681E-02
2.000000000E+01 9.999954482E-01 4.781500511E-07 6.199209873E-02
2.010000000E+01 9.999954934E-01 4.734041743E-07 6.168368033E-02
2.020000000E+01 9.999955379E-01 4.687286062E-07 6.137831557E-02
2.030000000E+01 9.999955700E-01 4.439306534E-07 6.107595934E-02
2.040000000E+01 9.999956114E-01 4.361745839E-07 6.077656738E-02
2.050000000E+01 9.999956521E-01 4.285813441E-07 6.048009632E-02
2.060000000E+01 9.999956923E-01 4.211468236E-07 6.018650362E-02
2.070000000E+01 9.999957320E-01 4.138670342E-07 5.989574756E-02
2.080000000E+01 9.999957722E-01 4.085981647E-07 5.960778724E-02
2.090000000E+01 9.999958125E-01 4.046974885E-07 5.932258252E-02
2.100000000E+01 9.999958523E-01 4.008524035E-07 5.904009403E-02
2.110000000E+01 9.999958915E-01 3.970618584E-07 5.876028316E-02
2.120000000E+01 9.999959302E-01 3.933248264E-07 5.848311201E-02
2.130000000E+01 9.999959683E-01 3.896403050E-07 5.820854341E-02
2.140000000E+01 9.999959973E-01 3.672384138E-07 5.793654087E-02
2.150000000E+01 9.999960332E-01 3.611081329E-07 5.766706859E-02
2.160000000E+01 9.999960686E-01 3.551003419E-07 5.740009142E-02
2.170000000E+01 9.999961035E-01 3.492121008E-07 5.713557487E-02
2.180000000E+01 9.999961380E-01 3.434405527E-07 5.687348507E-02
2.190000000E+01 9.999961720E-01 3.377829207E-07 5.661378879E-02
2.200000000E+01 9.999962065E-01 3.342023318E-07 5.635645339E-02
2.210000000E+01 9.999962407E-01 3.311847190E-07 5.610144681E-02
2.220000000E+01 9.999962745E-01 3.282077928E-07 5.584873759E-02
2.230000000E+01 9.999963079E-01 3.252708250E-07 5.559829482E-02
2.240000000E+01 9.999963408E-01 3.223731038E-07 5.535008815E-02
2.250000000E+01 9.999963732E-01 3.195139330E-07 5.510408776E-02
2.260000000E+01 9.999963999E-01 3.016266463E-07 5.486026436E-02
2.270000000E+01 9.999964308E-01 2.968519600E-07 5.461858919E-02
2.280000000E+01 9.999964613E-01 2.921677120E-07 5.437903397E-02
2.290000000E+01 9.999964914E-01 2.875718445E-07 5.414157094E-02
2.300000000E+01 9.999965212E-01 2.830623545E-07 5.390617281E-02
2.310000000E+01 9.999965505E-01 2.786372928E-07 5.367281275E-02
2.320000000E+01 9.999965795E-01 2.742947616E-07 5.344146442E-02
2.330000000E+01 9.999966088E-01 2.718707357E-07 5.321210191E-02
2.340000000E+01 9.999966377E-01 2.695520194E-07 5.298469977E-02
2.350000000E+01 9.999966663E-01 2.672628406E-07 5.275923296E-02
2.360000000E+01 9.999966945E-01 2.650026999E-07 5.253567689E-02
2.370000000E+01 9.999967223E-01 2.627711081E-07 5.231400737E-02
2.380000000E+01 9.999967498E-01 2.605675865E-07 5.209420061E-02
2.390000000E+01 9.999967736E-01 2.463767179E-07 5.187623325E-02
2.400000000E+01 9.999968000E-01 2.426729853E-07 5.166008227E-02
2.410000000E+01 9.999968261E-01 2.390357336E-07 5.144572509E-02
2.420000000E+01 9.999968518E-01 2.354635300E-07 5.123313945E-02
2.430000000E+01 9.999968772E-01 2.319549778E-07 5.102230348E-02
2.440000000E+01 9.999969024E-01 2.285087159E-07 5.081319568E-02
2.450000000E+01 9.999969274E-01 2.258086506E-07 5.060579488E-02
2.460000000E+01 9.999969523E-01 2.239765393E-07 5.040008027E-02
2.470000000E+01 9.999969769E-01 2.221666353E-07 5.019603136E-02
2.480000000E+01 9.999970013E-01 2.203785811E-07 4.999362801E-02
2.490000000E+01 9.999970253E-01 2.186120264E-07 4.979285038E-02
2.500000000E+01 9.999970490E-01 2.168666280E-07 4.959367898E-02
2.510000000E+01 9.999970725E-01 2.151420494E-07 4.939609460E-02
2.520000000E+01 9.999970937E-01 2.032959757E-07 4.920007836E-02
2.530000000E+01 9.999971163E-01 2.003867081E-07 4.900561164E-02
2.540000000E+01 9.999971387E-01 1.975270611E-07 4.881267616E-02
2.550000000E+01 9.999971609E-01 1.947160187E-07 4.862125391E-02
2.560000000E+01 9.999971827E-01 1.919525896E-07 4.843132713E-02
2.570000000E+01 9.999972044E-01 1.892358061E-07 4.824287839E-02
2.580000000E+01 9.999972258E-01 1.865647238E-07 4.805589049E-02
2.590000000E+01 9.999972470E-01 1.844355459E-07 4.787034651E-02
2.600000000E+01 9.999972681E-01 1.830195393E-07 4.768622979E-02
2.610000000E+01 9.999972890E-01 1.816197774E-07 4.750352393E-02
2.620000000E+01 9.999973097E-01 1.802360127E-07 4.732221277E-02
2.630000000E+01 9.999973301E-01 1.788680024E-07 4.714228040E-02
2.640000000E+01 9.999973503E-01 1.775155082E-07 4.696371116E-02
2.650000000E+01 9.999973703E-01 1.761782963E-07 4.678648961E-02
2.660000000E+01 9.999973900E-01 1.748561374E-07 4.661060055E-02
2.670000000E+01 9.999974084E-01 1.646795188E-07 4.643602901E-02
2.680000000E+01 9.999974275E-01 1.624440023E-07 4.626276025E-02
2.690000000E+01 9.999974465E-01 1.602445595E-07 4.609077972E-02
2.700000000E+01 9.999974652E-01 1.580804920E-07 4.592007313E-02
2.710000000E+01 9.999974838E-01 1.559511175E-07 4.575062637E-02
2.720000000E+01 9.999975021E-01 1.538557690E-07 4.558242554E-02
2.730000000E+01 9.999975203E-01 1.517937947E-07 4.541545694E-02
2.740000000E+01 9.999975382E-01 1.497645574E-07 4.524970710E-02
2.750000000E+01 9.999975561E-01 1.484535408E-07 4.508516271E-02
2.760000000E+01 9.999975737E-01 1.473797393E-07 4.492181067E-02
2.770000000E+01 9.999975912E-01 1.463175465E-07 4.475963807E-02
2.780000000E+01 9.999976085E-01 1.452667955E-07 4.459863218E-02
2.790000000E+01 9.999976256E-01 1.442273226E-07 4.443878045E-02
2.800000000E+01 9.999976426E-01 1.431989671E-07 4.428007052E-02
2.810000000E+01 9.999976593E-01 1.421815709E-07 4.412249020E-02
2.820000000E+01 9.999976759E-01 1.411749789E-07 4.396602747E-02
2.830000000E+01 9.999976923E-01 1.401790386E-07 4.381067048E-02
2.840000000E+01 9.999977085E-01 1.391936003E-07 4.365640756E-02
2.850000000E+01 9.999977246E-01 1.382185167E-07 4.350322718E-02
2.860000000E+01 9.999977399E-01 1.282050720E-07 4.335111799E-02
2.870000000E+01 9.999977556E-01 1.265827584E-07 4.320006880E-02
2.880000000E+01 9.999977711E-01 1.249848839E-07 4.305006856E-02
2.890000000E+01 9.999977865E-01 1.234110065E-07 4.290110639E-02
2.900000000E+01 9.999978017E-01 1.218606939E-07 4.275317154E-02
2.910000000E+01 9.999978167E-01 1.203335226E-07 4.260625342E-02
2.920000000E+01 9.999978316E-01 1.188290783E-07 4.246034160E-02
2.930000000E+01 9.999978463E-01 1.173469552E-07 4.231542575E-02
2.940000000E+01 9.999978609E-01 1.158867563E-07 4.217149573E-02
2.950000000E+01 9.999978754E-01 1.144480926E-07 4.202854151E-02
2.960000000E+01 9.999978897E-01 1.130305834E-07 4.188655320E-02
2.970000000E+01 9.999979038E-01 1.116338559E-07 4.174552103E-02
2.980000000E+01 9.999979178E-01 1.102575450E-07 4.160543539E-02
2.990000000E+01 9.999979317E-01 1.093347788E-07 4.146628678E-02
3.000000000E+01 9.999979455E-01 1.086070951E-07 4.132806582E-02
3.010000000E+01 9.999979591E-01 1.078866520E-07 4.119076328E-02
3.020000000E+01 9.999979726E-01 1.071733537E-07 4.105437002E-02
3.030000000E+01 9.999979860E-01 1.064671062E-07 4.091887705E-02
3.040000000E+01 9.999979992E-01 1.057678168E-07 4.078427548E-02
3.050000000E+01 9.999980123E-01 1.050753943E-07 4.065055654E-02
3.060000000E+01 9.999980253E-01 1.043897492E-07 4.051771159E-02
3.070000000E+01 9.999980381E-01 1.037107933E-07 4.038573207E-02
3.080000000E+01 9.999980508E-01 1.030384398E-07 4.025460956E-02
3.090000000E+01 9.999980634E-01 1.023726035E-07 4.012433575E-02
3.100000000E+01 9.999980759E-01 1.017132004E-07 3.999490241E-02
3.110000000E+01 9.999980882E-01 1.010601478E-07 3.986630143E-02
3.120000000E+01 9.999981005E-01 1.004133645E-07 3.973852483E-02
3.130000000E+01 9.999981128E-01 9.219975453E-08 3.961156468E-02
3.140000000E+01 9.999981248E-01 9.112712636E-08 3.948541320E-02
3.150000000E+01 9.999981367E-01 9.006930692E-08 3.936006269E-02
3.160000000E+01 9.999981485E-01 8.902605097E-08 3.923550552E-02
3.170000000E+01 9.999981601E-01 8.799711808E-08 3.911173421E-02
