# 04/03/2022 
# Density retrieved from www.chemicool.com/densities.html 
# Includes the real (n) and complex (k) part of the  refractive index. 
# Element, Pr  (Z = 59) 
# Nominal density, g cm-3 =  6.77 
#    E [keV]      n       k    Wavelength [nm] 
1.000000000E+00 9.996246791E-01 6.935508481E-04 1.239841975E+00
1.100000000E+00 9.994776499E-01 5.105960582E-04 1.127129068E+00
1.200000000E+00 9.995103761E-01 3.814240762E-04 1.033201645E+00
1.300000000E+00 9.995384650E-01 3.379531054E-04 9.537245958E-01
1.400000000E+00 9.995723011E-01 2.893822469E-04 8.856014104E-01
1.500000000E+00 9.996062188E-01 2.348328490E-04 8.265613164E-01
1.600000000E+00 9.996264436E-01 1.921693652E-04 7.749012341E-01
1.700000000E+00 9.996579408E-01 1.577525236E-04 7.293188086E-01
1.800000000E+00 9.996915518E-01 1.368286888E-04 6.888010970E-01
1.900000000E+00 9.997151687E-01 1.109562686E-04 6.525484077E-01
2.000000000E+00 9.997386123E-01 9.222404300E-05 6.199209873E-01
2.100000000E+00 9.997612955E-01 8.069079863E-05 5.904009403E-01
2.200000000E+00 9.997799030E-01 6.692932507E-05 5.635645339E-01
2.300000000E+00 9.997978785E-01 5.934090317E-05 5.390617281E-01
2.400000000E+00 9.998130948E-01 4.984106258E-05 5.166008227E-01
2.500000000E+00 9.998270421E-01 4.335674043E-05 4.959367898E-01
2.600000000E+00 9.998400226E-01 3.983719340E-05 4.768622979E-01
2.700000000E+00 9.998511019E-01 3.332077644E-05 4.592007313E-01
2.800000000E+00 9.998613044E-01 2.938676889E-05 4.428007052E-01
2.900000000E+00 9.998706383E-01 2.695957989E-05 4.275317154E-01
3.000000000E+00 9.998791187E-01 2.519222965E-05 4.132806582E-01
3.100000000E+00 9.998867772E-01 2.068030103E-05 3.999490241E-01
3.200000000E+00 9.998937386E-01 1.851012613E-05 3.874506171E-01
3.300000000E+00 9.999000778E-01 1.674166992E-05 3.757096893E-01
3.400000000E+00 9.999058691E-01 1.577134822E-05 3.646594043E-01
3.500000000E+00 9.999111712E-01 1.488300290E-05 3.542405642E-01
3.600000000E+00 9.999163722E-01 1.227390702E-05 3.444005485E-01
3.700000000E+00 9.999209202E-01 1.114369986E-05 3.350924256E-01
3.800000000E+00 9.999251073E-01 1.013763399E-05 3.262742038E-01
3.900000000E+00 9.999289049E-01 9.591084617E-06 3.179081986E-01
4.000000000E+00 9.999324152E-01 9.117524814E-06 3.099604936E-01
4.100000000E+00 9.999361146E-01 7.767612968E-06 3.024004816E-01
4.200000000E+00 9.999392518E-01 7.132240084E-06 2.952004701E-01
4.300000000E+00 9.999421638E-01 6.558858381E-06 2.883353429E-01
4.400000000E+00 9.999448717E-01 6.040299860E-06 2.817822670E-01
4.500000000E+00 9.999472978E-01 5.768223564E-06 2.755204388E-01
4.600000000E+00 9.999495643E-01 5.520157239E-06 2.695308640E-01
4.700000000E+00 9.999522176E-01 4.783706774E-06 2.637961648E-01
4.800000000E+00 9.999543448E-01 4.437118727E-06 2.583004114E-01
4.900000000E+00 9.999563337E-01 4.120399495E-06 2.530289744E-01
5.000000000E+00 9.999581447E-01 3.879430934E-06 2.479683949E-01
5.100000000E+00 9.999597700E-01 3.728787903E-06 2.431062695E-01
5.200000000E+00 9.999618482E-01 3.331968435E-06 2.384311490E-01
5.300000000E+00 9.999634799E-01 3.111403320E-06 2.339324480E-01
5.400000000E+00 9.999649085E-01 2.955909732E-06 2.296003657E-01
5.500000000E+00 9.999666918E-01 2.724714776E-06 2.254258136E-01
5.600000000E+00 9.999681639E-01 2.557817414E-06 2.214003526E-01
5.700000000E+00 9.999698188E-01 2.396509120E-06 2.175161359E-01
5.800000000E+00 9.999715642E-01 2.260334142E-06 2.137658577E-01
5.900000000E+00 9.999739531E-01 2.613286274E-06 2.101427076E-01
6.000000000E+00 9.999751170E-01 4.879145222E-06 2.066403291E-01
6.100000000E+00 9.999745719E-01 5.391163502E-06 2.032527827E-01
6.200000000E+00 9.999748917E-01 5.133061918E-06 1.999745120E-01
6.300000000E+00 9.999754805E-01 4.841485108E-06 1.968003134E-01
6.400000000E+00 9.999766031E-01 4.917924450E-06 1.937253085E-01
6.500000000E+00 9.999770143E-01 5.590656149E-06 1.907449192E-01
6.600000000E+00 9.999770529E-01 5.570018258E-06 1.878548446E-01
6.700000000E+00 9.999774996E-01 5.314252019E-06 1.850510410E-01
6.800000000E+00 9.999781229E-01 5.299601696E-06 1.823297021E-01
6.900000000E+00 9.999782486E-01 5.401628110E-06 1.796872427E-01
7.000000000E+00 9.999786409E-01 5.271724362E-06 1.771202821E-01
7.100000000E+00 9.999788555E-01 4.989851684E-06 1.746256302E-01
7.200000000E+00 9.999791927E-01 4.724590694E-06 1.722002742E-01
7.300000000E+00 9.999796163E-01 4.522130788E-06 1.698413664E-01
7.400000000E+00 9.999799986E-01 4.289365692E-06 1.675462128E-01
7.500000000E+00 9.999804021E-01 4.090440085E-06 1.653122633E-01
7.600000000E+00 9.999808952E-01 3.970553379E-06 1.631371019E-01
7.700000000E+00 9.999812123E-01 3.724293159E-06 1.610184383E-01
7.800000000E+00 9.999816468E-01 3.593319080E-06 1.589540993E-01
7.900000000E+00 9.999821085E-01 3.502924737E-06 1.569420221E-01
8.000000000E+00 9.999823888E-01 3.249470412E-06 1.549802468E-01
8.100000000E+00 9.999827739E-01 3.122054471E-06 1.530669104E-01
8.200000000E+00 9.999831915E-01 3.046371116E-06 1.512002408E-01
8.300000000E+00 9.999834906E-01 2.848592367E-06 1.493785512E-01
8.400000000E+00 9.999838395E-01 2.730688366E-06 1.476002351E-01
8.500000000E+00 9.999842175E-01 2.666814825E-06 1.458637617E-01
8.600000000E+00 9.999845152E-01 2.507718536E-06 1.441676715E-01
8.700000000E+00 9.999848381E-01 2.405338682E-06 1.425105718E-01
8.800000000E+00 9.999851672E-01 2.331411093E-06 1.408911335E-01
8.900000000E+00 9.999854986E-01 2.279314166E-06 1.393080870E-01
9.000000000E+00 9.999857607E-01 2.128357166E-06 1.377602194E-01
9.100000000E+00 9.999860503E-01 2.044730734E-06 1.362463708E-01
9.200000000E+00 9.999863443E-01 1.987347764E-06 1.347654320E-01
9.300000000E+00 9.999866364E-01 1.944838880E-06 1.333163414E-01
9.400000000E+00 9.999868780E-01 1.818188931E-06 1.318980824E-01
9.500000000E+00 9.999871381E-01 1.749522852E-06 1.305096815E-01
9.600000000E+00 9.999874004E-01 1.704502433E-06 1.291502057E-01
9.700000000E+00 9.999876589E-01 1.669539210E-06 1.278187603E-01
9.800000000E+00 9.999878803E-01 1.563041424E-06 1.265144872E-01
9.900000000E+00 9.999881137E-01 1.506294349E-06 1.252365631E-01
1.000000000E+01 9.999883498E-01 1.475106832E-06 1.239841975E-01
1.010000000E+01 9.999885640E-01 1.401091453E-06 1.227566311E-01
1.020000000E+01 9.999887796E-01 1.351813344E-06 1.215531348E-01
1.030000000E+01 9.999889926E-01 1.314532838E-06 1.203730072E-01
1.040000000E+01 9.999892033E-01 1.289374896E-06 1.192155745E-01
1.050000000E+01 9.999893938E-01 1.216692999E-06 1.180801881E-01
1.060000000E+01 9.999895900E-01 1.183740348E-06 1.169662240E-01
1.070000000E+01 9.999897837E-01 1.161717752E-06 1.158730817E-01
1.080000000E+01 9.999899609E-01 1.098490152E-06 1.148001828E-01
1.090000000E+01 9.999901400E-01 1.062245403E-06 1.137469701E-01
1.100000000E+01 9.999903158E-01 1.032820851E-06 1.127129068E-01
1.110000000E+01 9.999904895E-01 1.014295292E-06 1.116974752E-01
1.120000000E+01 9.999906515E-01 9.623347129E-07 1.107001763E-01
1.130000000E+01 9.999908134E-01 9.316043633E-07 1.097205287E-01
1.140000000E+01 9.999909723E-01 9.076076822E-07 1.087580679E-01
1.150000000E+01 9.999911286E-01 8.918918290E-07 1.078123456E-01
1.160000000E+01 9.999912756E-01 8.466699063E-07 1.068829288E-01
1.170000000E+01 9.999914221E-01 8.204702076E-07 1.059693995E-01
1.180000000E+01 9.999915648E-01 7.952296920E-07 1.050713538E-01
1.190000000E+01 9.999917050E-01 7.762469995E-07 1.041884012E-01
1.200000000E+01 9.999918427E-01 7.633634556E-07 1.033201645E-01
1.210000000E+01 9.999919738E-01 7.253545765E-07 1.024662789E-01
1.220000000E+01 9.999921037E-01 7.037362906E-07 1.016263914E-01
1.230000000E+01 9.999922315E-01 6.919953899E-07 1.008001605E-01
1.240000000E+01 9.999923547E-01 6.629789300E-07 9.998725601E-02
1.250000000E+01 9.999924760E-01 6.464418197E-07 9.918735797E-02
1.260000000E+01 9.999925941E-01 6.251143134E-07 9.840015671E-02
1.270000000E+01 9.999927096E-01 6.071760917E-07 9.762535233E-02
1.280000000E+01 9.999928229E-01 5.956151503E-07 9.686265426E-02
1.290000000E+01 9.999929330E-01 5.732300067E-07 9.611178098E-02
1.300000000E+01 9.999930411E-01 5.600659812E-07 9.537245958E-02
1.310000000E+01 9.999931469E-01 5.515479915E-07 9.464442554E-02
1.320000000E+01 9.999932498E-01 5.267665934E-07 9.392742232E-02
1.330000000E+01 9.999933508E-01 5.123065338E-07 9.322120110E-02
1.340000000E+01 9.999934496E-01 5.041527453E-07 9.252552049E-02
1.350000000E+01 9.999935462E-01 4.849784705E-07 9.184014627E-02
1.360000000E+01 9.999936407E-01 4.719695998E-07 9.116485107E-02
1.370000000E+01 9.999937332E-01 4.635451466E-07 9.049941420E-02
1.380000000E+01 9.999938237E-01 4.481546469E-07 8.984362135E-02
1.390000000E+01 9.999939122E-01 4.417295738E-07 8.919726436E-02
1.400000000E+01 9.999939989E-01 4.354416886E-07 8.856014104E-02
1.410000000E+01 9.999940840E-01 4.130431494E-07 8.793205493E-02
1.420000000E+01 9.999941672E-01 4.023474037E-07 8.731281511E-02
1.430000000E+01 9.999942485E-01 3.945128606E-07 8.670223598E-02
1.440000000E+01 9.999943281E-01 3.890525408E-07 8.610013712E-02
1.450000000E+01 9.999944061E-01 3.837048031E-07 8.550634307E-02
1.460000000E+01 9.999944824E-01 3.784665738E-07 8.492068319E-02
1.470000000E+01 9.999945585E-01 3.541525143E-07 8.434299147E-02
1.480000000E+01 9.999946321E-01 3.453652629E-07 8.377310639E-02
1.490000000E+01 9.999947041E-01 3.368344208E-07 8.321087078E-02
1.500000000E+01 9.999947748E-01 3.285510592E-07 8.265613164E-02
1.510000000E+01 9.999948438E-01 3.241202221E-07 8.210874004E-02
1.520000000E+01 9.999949114E-01 3.198695111E-07 8.156855096E-02
1.530000000E+01 9.999949787E-01 3.053314181E-07 8.103542318E-02
1.540000000E+01 9.999950440E-01 2.980269263E-07 8.050921913E-02
1.550000000E+01 9.999951081E-01 2.909276073E-07 7.998980481E-02
1.560000000E+01 9.999951706E-01 2.866584903E-07 7.947704965E-02
1.570000000E+01 9.999952320E-01 2.830184194E-07 7.897082641E-02
1.580000000E+01 9.999952921E-01 2.794472448E-07 7.847101105E-02
1.590000000E+01 9.999953512E-01 2.759432388E-07 7.797748268E-02
1.600000000E+01 9.999954110E-01 2.586361317E-07 7.749012341E-02
1.610000000E+01 9.999954682E-01 2.526988234E-07 7.700881830E-02
1.620000000E+01 9.999955243E-01 2.469212955E-07 7.653345522E-02
1.630000000E+01 9.999955794E-01 2.412984191E-07 7.606392482E-02
1.640000000E+01 9.999956335E-01 2.358252582E-07 7.560012040E-02
1.650000000E+01 9.999956863E-01 2.326501506E-07 7.514193785E-02
1.660000000E+01 9.999957381E-01 2.298555795E-07 7.468927558E-02
1.670000000E+01 9.999957890E-01 2.271110599E-07 7.424203441E-02
1.680000000E+01 9.999958390E-01 2.244154036E-07 7.380011753E-02
1.690000000E+01 9.999958881E-01 2.217674574E-07 7.336343045E-02
1.700000000E+01 9.999959363E-01 2.191661021E-07 7.293188086E-02
1.710000000E+01 9.999959837E-01 2.166102510E-07 7.250537863E-02
1.720000000E+01 9.999960303E-01 2.140988490E-07 7.208383573E-02
1.730000000E+01 9.999960760E-01 2.116308714E-07 7.166716616E-02
1.740000000E+01 9.999961210E-01 2.092053227E-07 7.125528590E-02
1.750000000E+01 9.999961701E-01 1.856385617E-07 7.084811283E-02
1.760000000E+01 9.999962140E-01 1.817382203E-07 7.044556674E-02
1.770000000E+01 9.999962570E-01 1.779339964E-07 7.004756919E-02
1.780000000E+01 9.999962994E-01 1.742230633E-07 6.965404352E-02
1.790000000E+01 9.999963410E-01 1.706026916E-07 6.926491478E-02
1.800000000E+01 9.999963819E-01 1.670702455E-07 6.888010970E-02
1.810000000E+01 9.999964221E-01 1.636231789E-07 6.849955661E-02
1.820000000E+01 9.999964617E-01 1.602590323E-07 6.812318542E-02
1.830000000E+01 9.999965006E-01 1.569754288E-07 6.775092757E-02
1.840000000E+01 9.999965389E-01 1.537700715E-07 6.738271601E-02
1.850000000E+01 9.999965766E-01 1.506407402E-07 6.701848511E-02
1.860000000E+01 9.999966136E-01 1.475852883E-07 6.665817068E-02
1.870000000E+01 9.999966501E-01 1.446016401E-07 6.630170987E-02
1.880000000E+01 9.999966856E-01 1.430641831E-07 6.594904120E-02
1.890000000E+01 9.999967206E-01 1.415542814E-07 6.560010448E-02
1.900000000E+01 9.999967550E-01 1.400681575E-07 6.525484077E-02
1.910000000E+01 9.999967889E-01 1.386053147E-07 6.491319239E-02
1.920000000E+01 9.999968223E-01 1.371652693E-07 6.457510284E-02
1.930000000E+01 9.999968551E-01 1.357475499E-07 6.424051682E-02
1.940000000E+01 9.999968875E-01 1.343516975E-07 6.390938013E-02
1.950000000E+01 9.999969193E-01 1.329772646E-07 6.358163972E-02
1.960000000E+01 9.999969507E-01 1.316238152E-07 6.325724360E-02
1.970000000E+01 9.999969815E-01 1.302909244E-07 6.293614084E-02
1.980000000E+01 9.999970119E-01 1.289781779E-07 6.261828154E-02
1.990000000E+01 9.999970419E-01 1.276851717E-07 6.230361681E-02
2.000000000E+01 9.999970762E-01 1.127179276E-07 6.199209873E-02
2.010000000E+01 9.999971056E-01 1.106287021E-07 6.168368033E-02
2.020000000E+01 9.999971345E-01 1.085847336E-07 6.137831557E-02
2.030000000E+01 9.999971630E-01 1.065848527E-07 6.107595934E-02
2.040000000E+01 9.999971911E-01 1.046279255E-07 6.077656738E-02
2.050000000E+01 9.999972187E-01 1.027128522E-07 6.048009632E-02
2.060000000E+01 9.999972459E-01 1.008385659E-07 6.018650362E-02
2.070000000E+01 9.999972728E-01 9.900403164E-08 5.989574756E-02
2.080000000E+01 9.999972993E-01 9.720824524E-08 5.960778724E-02
2.090000000E+01 9.999973253E-01 9.545023217E-08 5.932258252E-02
2.100000000E+01 9.999973510E-01 9.372904660E-08 5.904009403E-02
2.110000000E+01 9.999973764E-01 9.204377045E-08 5.876028316E-02
2.120000000E+01 9.999974013E-01 9.039351241E-08 5.848311201E-02
2.130000000E+01 9.999974258E-01 8.903110149E-08 5.820854341E-02
2.140000000E+01 9.999974498E-01 8.820097920E-08 5.793654087E-02
2.150000000E+01 9.999974735E-01 8.738241306E-08 5.766706859E-02
2.160000000E+01 9.999974969E-01 8.657518955E-08 5.740009142E-02
2.170000000E+01 9.999975199E-01 8.577910008E-08 5.713557487E-02
2.180000000E+01 9.999975426E-01 8.499394082E-08 5.687348507E-02
2.190000000E+01 9.999975650E-01 8.421951260E-08 5.661378879E-02
2.200000000E+01 9.999975871E-01 8.345562074E-08 5.635645339E-02
2.210000000E+01 9.999976088E-01 8.270207497E-08 5.610144681E-02
2.220000000E+01 9.999976303E-01 8.195868930E-08 5.584873759E-02
2.230000000E+01 9.999976515E-01 8.122528190E-08 5.559829482E-02
2.240000000E+01 9.999976725E-01 8.050167498E-08 5.535008815E-02
2.250000000E+01 9.999976931E-01 7.978769469E-08 5.510408776E-02
2.260000000E+01 9.999977135E-01 7.908317103E-08 5.486026436E-02
2.270000000E+01 9.999977377E-01 7.006480219E-08 5.461858919E-02
2.280000000E+01 9.999977578E-01 6.891455388E-08 5.437903397E-02
2.290000000E+01 9.999977776E-01 6.778633026E-08 5.414157094E-02
2.300000000E+01 9.999977971E-01 6.667962837E-08 5.390617281E-02
2.310000000E+01 9.999978164E-01 6.559395871E-08 5.367281275E-02
2.320000000E+01 9.999978354E-01 6.452884482E-08 5.344146442E-02
2.330000000E+01 9.999978542E-01 6.348382291E-08 5.321210191E-02
2.340000000E+01 9.999978727E-01 6.245844142E-08 5.298469977E-02
2.350000000E+01 9.999978910E-01 6.145226070E-08 5.275923296E-02
2.360000000E+01 9.999979091E-01 6.046485261E-08 5.253567689E-02
2.370000000E+01 9.999979269E-01 5.949580021E-08 5.231400737E-02
2.380000000E+01 9.999979446E-01 5.854469738E-08 5.209420061E-02
2.390000000E+01 9.999979619E-01 5.761114855E-08 5.187623325E-02
2.400000000E+01 9.999979791E-01 5.669476833E-08 5.166008227E-02
2.410000000E+01 9.999979961E-01 5.579518125E-08 5.144572509E-02
2.420000000E+01 9.999980127E-01 5.519920490E-08 5.123313945E-02
2.430000000E+01 9.999980290E-01 5.474582526E-08 5.102230348E-02
2.440000000E+01 9.999980451E-01 5.429800853E-08 5.081319568E-02
2.450000000E+01 9.999980610E-01 5.385566407E-08 5.060579488E-02
2.460000000E+01 9.999980768E-01 5.341870308E-08 5.040008027E-02
2.470000000E+01 9.999980923E-01 5.298703857E-08 5.019603136E-02
2.480000000E+01 9.999981076E-01 5.256058526E-08 4.999362801E-02
2.490000000E+01 9.999981228E-01 5.213925962E-08 4.979285038E-02
2.500000000E+01 9.999981378E-01 5.172297977E-08 4.959367898E-02
2.510000000E+01 9.999981526E-01 5.131166546E-08 4.939609460E-02
2.520000000E+01 9.999981672E-01 5.090523803E-08 4.920007836E-02
2.530000000E+01 9.999981817E-01 5.050362036E-08 4.900561164E-02
2.540000000E+01 9.999981960E-01 5.010673687E-08 4.881267616E-02
2.550000000E+01 9.999982101E-01 4.971451343E-08 4.862125391E-02
2.560000000E+01 9.999982241E-01 4.932687738E-08 4.843132713E-02
2.570000000E+01 9.999982414E-01 4.387855387E-08 4.824287839E-02
2.580000000E+01 9.999982552E-01 4.323925220E-08 4.805589049E-02
2.590000000E+01 9.999982688E-01 4.261079398E-08 4.787034651E-02
2.600000000E+01 9.999982823E-01 4.199295988E-08 4.768622979E-02
2.610000000E+01 9.999982957E-01 4.138553581E-08 4.750352393E-02
2.620000000E+01 9.999983089E-01 4.078831269E-08 4.732221277E-02
2.630000000E+01 9.999983219E-01 4.020108639E-08 4.714228040E-02
2.640000000E+01 9.999983348E-01 3.962365757E-08 4.696371116E-02
2.650000000E+01 9.999983475E-01 3.905583153E-08 4.678648961E-02
2.660000000E+01 9.999983601E-01 3.849741811E-08 4.661060055E-02
2.670000000E+01 9.999983725E-01 3.794823157E-08 4.643602901E-02
2.680000000E+01 9.999983848E-01 3.740809045E-08 4.626276025E-02
2.690000000E+01 9.999983970E-01 3.687681747E-08 4.609077972E-02
2.700000000E+01 9.999984090E-01 3.635423944E-08 4.592007313E-02
2.710000000E+01 9.999984209E-01 3.584018710E-08 4.575062637E-02
2.720000000E+01 9.999984327E-01 3.533449508E-08 4.558242554E-02
2.730000000E+01 9.999984443E-01 3.483700174E-08 4.541545694E-02
2.740000000E+01 9.999984557E-01 3.443682436E-08 4.524970710E-02
2.750000000E+01 9.999984669E-01 3.418683010E-08 4.508516271E-02
2.760000000E+01 9.999984780E-01 3.393954823E-08 4.492181067E-02
2.770000000E+01 9.999984890E-01 3.369493967E-08 4.475963807E-02
2.780000000E+01 9.999984998E-01 3.345296602E-08 4.459863218E-02
2.790000000E+01 9.999985106E-01 3.321358957E-08 4.443878045E-02
2.800000000E+01 9.999985212E-01 3.297677329E-08 4.428007052E-02
2.810000000E+01 9.999985317E-01 3.274248079E-08 4.412249020E-02
2.820000000E+01 9.999985421E-01 3.251067635E-08 4.396602747E-02
2.830000000E+01 9.999985524E-01 3.228132485E-08 4.381067048E-02
2.840000000E+01 9.999985626E-01 3.205439181E-08 4.365640756E-02
2.850000000E+01 9.999985726E-01 3.182984335E-08 4.350322718E-02
2.860000000E+01 9.999985826E-01 3.160764617E-08 4.335111799E-02
2.870000000E+01 9.999985925E-01 3.138776756E-08 4.320006880E-02
2.880000000E+01 9.999986022E-01 3.117017537E-08 4.305006856E-02
2.890000000E+01 9.999986119E-01 3.095483802E-08 4.290110639E-02
2.900000000E+01 9.999986214E-01 3.074172445E-08 4.275317154E-02
2.910000000E+01 9.999986341E-01 2.742126218E-08 4.260625342E-02
2.920000000E+01 9.999986436E-01 2.706725746E-08 4.246034160E-02
2.930000000E+01 9.999986530E-01 2.671856734E-08 4.231542575E-02
2.940000000E+01 9.999986623E-01 2.637509666E-08 4.217149573E-02
2.950000000E+01 9.999986715E-01 2.603675229E-08 4.202854151E-02
2.960000000E+01 9.999986806E-01 2.570344303E-08 4.188655320E-02
2.970000000E+01 9.999986897E-01 2.537507958E-08 4.174552103E-02
2.980000000E+01 9.999986986E-01 2.505157449E-08 4.160543539E-02
2.990000000E+01 9.999987074E-01 2.473284215E-08 4.146628678E-02
3.000000000E+01 9.999987162E-01 2.441879870E-08 4.132806582E-02
3.010000000E+01 9.999987249E-01 2.410936199E-08 4.119076328E-02
3.020000000E+01 9.999987334E-01 2.380445159E-08 4.105437002E-02
3.030000000E+01 9.999987419E-01 2.350398870E-08 4.091887705E-02
3.040000000E+01 9.999987503E-01 2.320789611E-08 4.078427548E-02
3.050000000E+01 9.999987587E-01 2.291609821E-08 4.065055654E-02
3.060000000E+01 9.999987669E-01 2.262852091E-08 4.051771159E-02
3.070000000E+01 9.999987751E-01 2.234509161E-08 4.038573207E-02
3.080000000E+01 9.999987831E-01 2.206573918E-08 4.025460956E-02
3.090000000E+01 9.999987911E-01 2.179039392E-08 4.012433575E-02
3.100000000E+01 9.999987991E-01 2.151898752E-08 3.999490241E-02
3.110000000E+01 9.999988068E-01 2.132981611E-08 3.986630143E-02
3.120000000E+01 9.999988145E-01 2.119330564E-08 3.973852483E-02
3.130000000E+01 9.999988220E-01 2.105810148E-08 3.961156468E-02
3.140000000E+01 9.999988295E-01 2.092418703E-08 3.948541320E-02
3.150000000E+01 9.999988369E-01 2.079154592E-08 3.936006269E-02
3.160000000E+01 9.999988443E-01 2.066016208E-08 3.923550552E-02
3.170000000E+01 9.999988516E-01 2.053001965E-08 3.911173421E-02
