# 04/03/2022 
# Density retrieved from www.chemicool.com/densities.html 
# Includes the real (n) and complex (k) part of the  refractive index. 
# Element, Pt  (Z = 78) 
# Nominal density, g cm-3 =  21.45 
#    E [keV]      n       k    Wavelength [nm] 
1.000000000E+00 9.976745353E-01 9.393849964E-04 1.239841975E+00
1.100000000E+00 9.980453988E-01 7.062649941E-04 1.127129068E+00
1.200000000E+00 9.983360347E-01 5.472964147E-04 1.033201645E+00
1.300000000E+00 9.985786285E-01 4.587228611E-04 9.537245958E-01
1.400000000E+00 9.987756234E-01 3.434624187E-04 8.856014104E-01
1.500000000E+00 9.989339063E-01 2.785023849E-04 8.265613164E-01
1.600000000E+00 9.990630208E-01 2.440276161E-04 7.749012341E-01
1.700000000E+00 9.991939832E-01 1.888493345E-04 7.293188086E-01
1.800000000E+00 9.992850987E-01 1.638391495E-04 6.888010970E-01
1.900000000E+00 9.993933920E-01 1.331292021E-04 6.525484077E-01
2.000000000E+00 9.994895875E-01 1.131467760E-04 6.199209873E-01
2.100000000E+00 9.996279179E-01 1.054571005E-04 5.904009403E-01
2.200000000E+00 9.996505690E-01 2.367627822E-04 5.635645339E-01
2.300000000E+00 9.996298206E-01 2.531652577E-04 5.390617281E-01
2.400000000E+00 9.996219865E-01 2.394017292E-04 5.166008227E-01
2.500000000E+00 9.996186221E-01 2.232890190E-04 4.959367898E-01
2.600000000E+00 9.996378714E-01 1.974232735E-04 4.768622979E-01
2.700000000E+00 9.996516164E-01 1.996805290E-04 4.592007313E-01
2.800000000E+00 9.996513165E-01 1.754306295E-04 4.428007052E-01
2.900000000E+00 9.996656445E-01 1.557106694E-04 4.275317154E-01
3.000000000E+00 9.996838273E-01 1.412261686E-04 4.132806582E-01
3.100000000E+00 9.996955350E-01 1.318276522E-04 3.999490241E-01
3.200000000E+00 9.997084461E-01 1.182250605E-04 3.874506171E-01
3.300000000E+00 9.997237947E-01 1.100987225E-04 3.757096893E-01
3.400000000E+00 9.997335225E-01 1.011535839E-04 3.646594043E-01
3.500000000E+00 9.997442740E-01 9.106269295E-05 3.542405642E-01
3.600000000E+00 9.997564498E-01 8.418192957E-05 3.444005485E-01
3.700000000E+00 9.997663576E-01 7.543796831E-05 3.350924256E-01
3.800000000E+00 9.997765880E-01 6.888757633E-05 3.262742038E-01
3.900000000E+00 9.997878626E-01 6.535107780E-05 3.179081986E-01
4.000000000E+00 9.997959340E-01 5.783731700E-05 3.099604936E-01
4.100000000E+00 9.998047361E-01 5.321120966E-05 3.024004816E-01
4.200000000E+00 9.998139237E-01 5.070750761E-05 2.952004701E-01
4.300000000E+00 9.998211247E-01 4.515004149E-05 2.883353429E-01
4.400000000E+00 9.998285729E-01 4.171394878E-05 2.817822670E-01
4.500000000E+00 9.998356748E-01 3.884935519E-05 2.755204388E-01
4.600000000E+00 9.998427417E-01 3.717861260E-05 2.695308640E-01
4.700000000E+00 9.998486445E-01 3.320708303E-05 2.637961648E-01
4.800000000E+00 9.998545934E-01 3.085975407E-05 2.583004114E-01
4.900000000E+00 9.998602418E-01 2.885541276E-05 2.530289744E-01
5.000000000E+00 9.998657762E-01 2.771273841E-05 2.479683949E-01
5.100000000E+00 9.998709883E-01 2.663661900E-05 2.431062695E-01
5.200000000E+00 9.998754938E-01 2.336042787E-05 2.384311490E-01
5.300000000E+00 9.998800331E-01 2.185262927E-05 2.339324480E-01
5.400000000E+00 9.998843516E-01 2.058837965E-05 2.296003657E-01
5.500000000E+00 9.998885188E-01 1.984651737E-05 2.254258136E-01
5.600000000E+00 9.998924647E-01 1.914404179E-05 2.214003526E-01
5.700000000E+00 9.998960848E-01 1.695315612E-05 2.175161359E-01
5.800000000E+00 9.998996038E-01 1.594913249E-05 2.137658577E-01
5.900000000E+00 9.999029471E-01 1.501676625E-05 2.101427076E-01
6.000000000E+00 9.999061261E-01 1.414995247E-05 2.066403291E-01
6.100000000E+00 9.999091633E-01 1.349352054E-05 2.032527827E-01
6.200000000E+00 9.999120699E-01 1.306175596E-05 1.999745120E-01
6.300000000E+00 9.999148391E-01 1.265038799E-05 1.968003134E-01
6.400000000E+00 9.999174796E-01 1.225815184E-05 1.937253085E-01
6.500000000E+00 9.999200871E-01 1.067951186E-05 1.907449192E-01
6.600000000E+00 9.999225080E-01 1.011679972E-05 1.878548446E-01
6.700000000E+00 9.999248205E-01 9.589670138E-06 1.850510410E-01
6.800000000E+00 9.999270311E-01 9.095437065E-06 1.823297021E-01
6.900000000E+00 9.999291366E-01 8.753492468E-06 1.796872427E-01
7.000000000E+00 9.999311469E-01 8.505179110E-06 1.771202821E-01
7.100000000E+00 9.999330727E-01 8.267283801E-06 1.746256302E-01
7.200000000E+00 9.999349189E-01 8.039231798E-06 1.722002742E-01
7.300000000E+00 9.999366897E-01 7.820487453E-06 1.698413664E-01
7.400000000E+00 9.999385918E-01 6.748963812E-06 1.675462128E-01
7.500000000E+00 9.999402505E-01 6.433763354E-06 1.653122633E-01
7.600000000E+00 9.999418429E-01 6.136202703E-06 1.631371019E-01
7.700000000E+00 9.999433725E-01 5.855102525E-06 1.610184383E-01
7.800000000E+00 9.999448426E-01 5.589375504E-06 1.589540993E-01
7.900000000E+00 9.999462532E-01 5.350735340E-06 1.569420221E-01
8.000000000E+00 9.999475885E-01 5.217803009E-06 1.549802468E-01
8.100000000E+00 9.999488746E-01 5.089763642E-06 1.530669104E-01
8.200000000E+00 9.999501140E-01 4.966380020E-06 1.512002408E-01
8.300000000E+00 9.999513088E-01 4.847429127E-06 1.493785512E-01
8.400000000E+00 9.999524612E-01 4.732701142E-06 1.476002351E-01
8.500000000E+00 9.999538532E-01 4.118208144E-06 1.458637617E-01
8.600000000E+00 9.999549612E-01 3.949184597E-06 1.441676715E-01
8.700000000E+00 9.999560298E-01 3.788457365E-06 1.425105718E-01
8.800000000E+00 9.999570608E-01 3.635539717E-06 1.408911335E-01
8.900000000E+00 9.999580561E-01 3.489978288E-06 1.393080870E-01
9.000000000E+00 9.999590172E-01 3.351350460E-06 1.377602194E-01
9.100000000E+00 9.999599310E-01 3.245562259E-06 1.362463708E-01
9.200000000E+00 9.999607974E-01 3.175390013E-06 1.347654320E-01
9.300000000E+00 9.999616359E-01 3.107469195E-06 1.333163414E-01
9.400000000E+00 9.999624478E-01 3.041704512E-06 1.318980824E-01
9.500000000E+00 9.999632342E-01 2.978005659E-06 1.305096815E-01
9.600000000E+00 9.999642914E-01 2.660066632E-06 1.291502057E-01
9.700000000E+00 9.999650734E-01 2.562513813E-06 1.278187603E-01
9.800000000E+00 9.999658301E-01 2.469227986E-06 1.265144872E-01
9.900000000E+00 9.999665625E-01 2.379986050E-06 1.252365631E-01
1.000000000E+01 9.999672718E-01 2.294578541E-06 1.239841975E-01
1.010000000E+01 9.999679168E-01 2.249241277E-06 1.227566311E-01
1.020000000E+01 9.999685428E-01 2.205354696E-06 1.215531348E-01
1.030000000E+01 9.999691506E-01 2.162740151E-06 1.203730072E-01
1.040000000E+01 9.999700301E-01 1.992953857E-06 1.192155745E-01
1.050000000E+01 9.999706658E-01 1.925156433E-06 1.180801881E-01
1.060000000E+01 9.999712817E-01 1.860106316E-06 1.169662240E-01
1.070000000E+01 9.999718314E-01 1.818672870E-06 1.158730817E-01
1.080000000E+01 9.999723506E-01 1.785149665E-06 1.148001828E-01
1.090000000E+01 9.999731526E-01 1.682121394E-06 1.137469701E-01
1.100000000E+01 9.999737407E-01 1.627446440E-06 1.127129068E-01
1.110000000E+01 9.999742242E-01 1.595294004E-06 1.116974752E-01
1.120000000E+01 9.999750145E-01 1.525718371E-06 1.107001763E-01
1.130000000E+01 9.999757142E-01 1.493158962E-06 1.097205287E-01
1.140000000E+01 9.999765237E-01 1.531702728E-06 1.087580679E-01
1.150000000E+01 9.999774102E-01 1.922818207E-06 1.078123456E-01
1.160000000E+01 9.999779236E-01 2.576298220E-06 1.068829288E-01
1.170000000E+01 9.999778518E-01 3.121178830E-06 1.059693995E-01
1.180000000E+01 9.999778124E-01 3.199235419E-06 1.050713538E-01
1.190000000E+01 9.999779866E-01 3.160554681E-06 1.041884012E-01
1.200000000E+01 9.999780922E-01 3.049398413E-06 1.033201645E-01
1.210000000E+01 9.999784042E-01 2.988213075E-06 1.024662789E-01
1.220000000E+01 9.999786043E-01 2.870966539E-06 1.016263914E-01
1.230000000E+01 9.999788656E-01 2.786202917E-06 1.008001605E-01
1.240000000E+01 9.999791999E-01 2.739087312E-06 9.998725601E-02
1.250000000E+01 9.999794756E-01 2.626163328E-06 9.918735797E-02
1.260000000E+01 9.999797724E-01 2.550262993E-06 9.840015671E-02
1.270000000E+01 9.999800666E-01 2.481506657E-06 9.762535233E-02
1.280000000E+01 9.999803768E-01 2.442884575E-06 9.686265426E-02
1.290000000E+01 9.999807279E-01 2.337974492E-06 9.611178098E-02
1.300000000E+01 9.999810361E-01 2.284198262E-06 9.537245958E-02
1.310000000E+01 9.999814625E-01 2.243402466E-06 9.464442554E-02
1.320000000E+01 9.999818705E-01 2.294365396E-06 9.392742232E-02
1.330000000E+01 9.999822140E-01 2.454442618E-06 9.322120110E-02
1.340000000E+01 9.999824866E-01 2.521042209E-06 9.252552049E-02
1.350000000E+01 9.999825774E-01 2.684490389E-06 9.184014627E-02
1.360000000E+01 9.999826633E-01 2.671850286E-06 9.116485107E-02
1.370000000E+01 9.999829045E-01 2.634725670E-06 9.049941420E-02
1.380000000E+01 9.999830978E-01 2.647112653E-06 8.984362135E-02
1.390000000E+01 9.999832640E-01 2.707113222E-06 8.919726436E-02
1.400000000E+01 9.999834780E-01 2.699767397E-06 8.856014104E-02
1.410000000E+01 9.999835063E-01 2.691789572E-06 8.793205493E-02
1.420000000E+01 9.999836856E-01 2.661674912E-06 8.731281511E-02
1.430000000E+01 9.999837919E-01 2.582887684E-06 8.670223598E-02
1.440000000E+01 9.999839454E-01 2.522716679E-06 8.610013712E-02
1.450000000E+01 9.999841660E-01 2.488040574E-06 8.550634307E-02
1.460000000E+01 9.999843822E-01 2.454074548E-06 8.492068319E-02
1.470000000E+01 9.999844517E-01 2.344305058E-06 8.434299147E-02
1.480000000E+01 9.999846165E-01 2.288692205E-06 8.377310639E-02
1.490000000E+01 9.999848167E-01 2.255084917E-06 8.321087078E-02
1.500000000E+01 9.999850185E-01 2.225117344E-06 8.265613164E-02
1.510000000E+01 9.999851282E-01 2.132247935E-06 8.210874004E-02
1.520000000E+01 9.999852938E-01 2.083029129E-06 8.156855096E-02
1.530000000E+01 9.999854567E-01 2.035184937E-06 8.103542318E-02
1.540000000E+01 9.999856303E-01 1.998253783E-06 8.050921913E-02
1.550000000E+01 9.999858151E-01 1.972553037E-06 7.998980481E-02
1.560000000E+01 9.999859964E-01 1.947344951E-06 7.947704965E-02
1.570000000E+01 9.999861039E-01 1.856267825E-06 7.897082641E-02
1.580000000E+01 9.999862599E-01 1.814536416E-06 7.847101105E-02
1.590000000E+01 9.999864133E-01 1.773932113E-06 7.797748268E-02
1.600000000E+01 9.999865717E-01 1.741539997E-06 7.749012341E-02
1.610000000E+01 9.999867380E-01 1.719973146E-06 7.700881830E-02
1.620000000E+01 9.999869012E-01 1.698804448E-06 7.653345522E-02
1.630000000E+01 9.999870614E-01 1.678024160E-06 7.606392482E-02
1.640000000E+01 9.999871600E-01 1.588170454E-06 7.560012040E-02
1.650000000E+01 9.999873025E-01 1.553931939E-06 7.514193785E-02
1.660000000E+01 9.999874426E-01 1.520579798E-06 7.468927558E-02
1.670000000E+01 9.999875804E-01 1.488086467E-06 7.424203441E-02
1.680000000E+01 9.999877269E-01 1.469401154E-06 7.380011753E-02
1.690000000E+01 9.999878718E-01 1.452063239E-06 7.336343045E-02
1.700000000E+01 9.999880140E-01 1.435030386E-06 7.293188086E-02
1.710000000E+01 9.999881189E-01 1.367354741E-06 7.250537863E-02
1.720000000E+01 9.999882481E-01 1.339048355E-06 7.208383573E-02
1.730000000E+01 9.999883752E-01 1.311445494E-06 7.166716616E-02
1.740000000E+01 9.999885003E-01 1.284525153E-06 7.125528590E-02
1.750000000E+01 9.999886250E-01 1.260708718E-06 7.084811283E-02
1.760000000E+01 9.999887539E-01 1.246423182E-06 7.044556674E-02
1.770000000E+01 9.999888806E-01 1.232379089E-06 7.004756919E-02
1.780000000E+01 9.999890052E-01 1.218571029E-06 6.965404352E-02
1.790000000E+01 9.999891277E-01 1.204993742E-06 6.926491478E-02
1.800000000E+01 9.999892181E-01 1.137313675E-06 6.888010970E-02
1.810000000E+01 9.999893314E-01 1.114824527E-06 6.849955661E-02
1.820000000E+01 9.999894430E-01 1.092867836E-06 6.812318542E-02
1.830000000E+01 9.999895528E-01 1.071428465E-06 6.775092757E-02
1.840000000E+01 9.999896632E-01 1.054635015E-06 6.738271601E-02
1.850000000E+01 9.999897746E-01 1.043264370E-06 6.701848511E-02
1.860000000E+01 9.999898843E-01 1.032076629E-06 6.665817068E-02
1.870000000E+01 9.999899922E-01 1.021067891E-06 6.630170987E-02
1.880000000E+01 9.999900812E-01 9.723211564E-07 6.594904120E-02
1.890000000E+01 9.999901822E-01 9.538644977E-07 6.560010448E-02
1.900000000E+01 9.999902817E-01 9.358268646E-07 6.525484077E-02
1.910000000E+01 9.999903796E-01 9.181968373E-07 6.491319239E-02
1.920000000E+01 9.999904761E-01 9.009633617E-07 6.457510284E-02
1.930000000E+01 9.999905729E-01 8.880129458E-07 6.424051682E-02
1.940000000E+01 9.999906698E-01 8.788817679E-07 6.390938013E-02
1.950000000E+01 9.999907653E-01 8.698907092E-07 6.358163972E-02
1.960000000E+01 9.999908501E-01 8.361671544E-07 6.325724360E-02
1.970000000E+01 9.999909402E-01 8.208634328E-07 6.293614084E-02
1.980000000E+01 9.999910290E-01 8.058937967E-07 6.261828154E-02
1.990000000E+01 9.999911165E-01 7.912494970E-07 6.230361681E-02
2.000000000E+01 9.999912038E-01 7.799206204E-07 6.199209873E-02
2.010000000E+01 9.999912911E-01 7.721795207E-07 6.168368033E-02
2.020000000E+01 9.999913771E-01 7.645531030E-07 6.137831557E-02
2.030000000E+01 9.999914619E-01 7.570391132E-07 6.107595934E-02
2.040000000E+01 9.999915454E-01 7.496353522E-07 6.077656738E-02
2.050000000E+01 9.999916182E-01 7.107516767E-07 6.048009632E-02
2.060000000E+01 9.999916977E-01 6.983258305E-07 6.018650362E-02
2.070000000E+01 9.999917761E-01 6.861593733E-07 5.989574756E-02
2.080000000E+01 9.999918534E-01 6.742458063E-07 5.960778724E-02
2.090000000E+01 9.999919296E-01 6.625788222E-07 5.932258252E-02
2.100000000E+01 9.999920048E-01 6.511522985E-07 5.904009403E-02
2.110000000E+01 9.999920792E-01 6.412238232E-07 5.876028316E-02
2.120000000E+01 9.999921538E-01 6.351888091E-07 5.848311201E-02
2.130000000E+01 9.999922273E-01 6.292385954E-07 5.820854341E-02
2.140000000E+01 9.999922998E-01 6.233716009E-07 5.793654087E-02
2.150000000E+01 9.999923712E-01 6.175862809E-07 5.766706859E-02
2.160000000E+01 9.999924417E-01 6.118811264E-07 5.740009142E-02
2.170000000E+01 9.999925112E-01 6.062546632E-07 5.713557487E-02
2.180000000E+01 9.999925725E-01 5.687806729E-07 5.687348507E-02
2.190000000E+01 9.999926392E-01 5.594003804E-07 5.661378879E-02
2.200000000E+01 9.999927051E-01 5.502045634E-07 5.635645339E-02
2.210000000E+01 9.999927700E-01 5.411888686E-07 5.610144681E-02
2.220000000E+01 9.999928341E-01 5.323490632E-07 5.584873759E-02
2.230000000E+01 9.999928973E-01 5.236810314E-07 5.559829482E-02
2.240000000E+01 9.999929597E-01 5.151807705E-07 5.535008815E-02
2.250000000E+01 9.999930217E-01 5.083675432E-07 5.510408776E-02
2.260000000E+01 9.999930833E-01 5.038786686E-07 5.486026436E-02
2.270000000E+01 9.999931441E-01 4.994489875E-07 5.461858919E-02
2.280000000E+01 9.999932041E-01 4.950774638E-07 5.437903397E-02
2.290000000E+01 9.999932633E-01 4.907630838E-07 5.414157094E-02
2.300000000E+01 9.999933218E-01 4.865048559E-07 5.390617281E-02
2.310000000E+01 9.999933795E-01 4.823018099E-07 5.367281275E-02
2.320000000E+01 9.999934329E-01 4.533638400E-07 5.344146442E-02
2.330000000E+01 9.999934887E-01 4.462816063E-07 5.321210191E-02
2.340000000E+01 9.999935438E-01 4.393307275E-07 5.298469977E-02
2.350000000E+01 9.999935982E-01 4.325082832E-07 5.275923296E-02
2.360000000E+01 9.999936519E-01 4.258114294E-07 5.253567689E-02
2.370000000E+01 9.999937050E-01 4.192373961E-07 5.231400737E-02
2.380000000E+01 9.999937574E-01 4.127834849E-07 5.209420061E-02
2.390000000E+01 9.999938093E-01 4.078480678E-07 5.187623325E-02
2.400000000E+01 9.999938608E-01 4.044564146E-07 5.166008227E-02
2.410000000E+01 9.999939116E-01 4.011068935E-07 5.144572509E-02
2.420000000E+01 9.999939618E-01 3.977988095E-07 5.123313945E-02
2.430000000E+01 9.999940114E-01 3.945314820E-07 5.102230348E-02
2.440000000E+01 9.999940604E-01 3.913042442E-07 5.081319568E-02
2.450000000E+01 9.999941088E-01 3.881164428E-07 5.060579488E-02
2.460000000E+01 9.999941566E-01 3.849674380E-07 5.040008027E-02
2.470000000E+01 9.999942023E-01 3.606501761E-07 5.019603136E-02
2.480000000E+01 9.999942488E-01 3.553634889E-07 4.999362801E-02
2.490000000E+01 9.999942947E-01 3.501689199E-07 4.979285038E-02
2.500000000E+01 9.999943401E-01 3.450645441E-07 4.959367898E-02
2.510000000E+01 9.999943849E-01 3.400484837E-07 4.939609460E-02
2.520000000E+01 9.999944292E-01 3.351189070E-07 4.920007836E-02
2.530000000E+01 9.999944730E-01 3.302740266E-07 4.900561164E-02
2.540000000E+01 9.999945163E-01 3.255120989E-07 4.881267616E-02
2.550000000E+01 9.999945591E-01 3.208314221E-07 4.862125391E-02
2.560000000E+01 9.999946014E-01 3.163586358E-07 4.843132713E-02
2.570000000E+01 9.999946433E-01 3.139014906E-07 4.824287839E-02
2.580000000E+01 9.999946847E-01 3.114728615E-07 4.805589049E-02
2.590000000E+01 9.999947257E-01 3.090723089E-07 4.787034651E-02
2.600000000E+01 9.999947662E-01 3.066994017E-07 4.768622979E-02
2.610000000E+01 9.999948062E-01 3.043537170E-07 4.750352393E-02
2.620000000E+01 9.999948458E-01 3.020348400E-07 4.732221277E-02
2.630000000E+01 9.999948849E-01 2.997423637E-07 4.714228040E-02
2.640000000E+01 9.999949236E-01 2.974758889E-07 4.696371116E-02
2.650000000E+01 9.999949618E-01 2.952350239E-07 4.678648961E-02
2.660000000E+01 9.999949996E-01 2.750463009E-07 4.661060055E-02
2.670000000E+01 9.999950370E-01 2.712903434E-07 4.643602901E-02
2.680000000E+01 9.999950740E-01 2.675952701E-07 4.626276025E-02
2.690000000E+01 9.999951105E-01 2.639598977E-07 4.609077972E-02
2.700000000E+01 9.999951467E-01 2.603830698E-07 4.592007313E-02
2.710000000E+01 9.999951824E-01 2.568636564E-07 4.575062637E-02
2.720000000E+01 9.999952178E-01 2.534005528E-07 4.558242554E-02
2.730000000E+01 9.999952527E-01 2.499926798E-07 4.541545694E-02
2.740000000E+01 9.999952873E-01 2.466389822E-07 4.524970710E-02
2.750000000E+01 9.999953215E-01 2.433384283E-07 4.508516271E-02
2.760000000E+01 9.999953554E-01 2.400900098E-07 4.492181067E-02
2.770000000E+01 9.999953889E-01 2.370939963E-07 4.475963807E-02
2.780000000E+01 9.999954220E-01 2.353913519E-07 4.459863218E-02
2.790000000E+01 9.999954547E-01 2.337069827E-07 4.443878045E-02
2.800000000E+01 9.999954871E-01 2.320406281E-07 4.428007052E-02
2.810000000E+01 9.999955192E-01 2.303920321E-07 4.412249020E-02
2.820000000E+01 9.999955509E-01 2.287609432E-07 4.396602747E-02
2.830000000E+01 9.999955823E-01 2.271471144E-07 4.381067048E-02
2.840000000E+01 9.999956134E-01 2.255503031E-07 4.365640756E-02
2.850000000E+01 9.999956441E-01 2.239702708E-07 4.350322718E-02
2.860000000E+01 9.999956745E-01 2.224067833E-07 4.335111799E-02
2.870000000E+01 9.999957046E-01 2.208596103E-07 4.320006880E-02
2.880000000E+01 9.999957344E-01 2.193285258E-07 4.305006856E-02
2.890000000E+01 9.999957649E-01 2.027856815E-07 4.290110639E-02
2.900000000E+01 9.999957941E-01 2.002156948E-07 4.275317154E-02
2.910000000E+01 9.999958230E-01 1.976841968E-07 4.260625342E-02
2.920000000E+01 9.999958517E-01 1.951904971E-07 4.246034160E-02
2.930000000E+01 9.999958800E-01 1.927339198E-07 4.231542575E-02
2.940000000E+01 9.999959081E-01 1.903138032E-07 4.217149573E-02
2.950000000E+01 9.999959358E-01 1.879294996E-07 4.202854151E-02
2.960000000E+01 9.999959633E-01 1.855803745E-07 4.188655320E-02
2.970000000E+01 9.999959905E-01 1.832658070E-07 4.174552103E-02
2.980000000E+01 9.999960175E-01 1.809851887E-07 4.160543539E-02
2.990000000E+01 9.999960441E-01 1.787379239E-07 4.146628678E-02
3.000000000E+01 9.999960705E-01 1.765234294E-07 4.132806582E-02
3.010000000E+01 9.999960967E-01 1.743411336E-07 4.119076328E-02
3.020000000E+01 9.999961225E-01 1.729211569E-07 4.105437002E-02
3.030000000E+01 9.999961481E-01 1.717816466E-07 4.091887705E-02
3.040000000E+01 9.999961734E-01 1.706533630E-07 4.078427548E-02
3.050000000E+01 9.999961984E-01 1.695361590E-07 4.065055654E-02
3.060000000E+01 9.999962232E-01 1.684298901E-07 4.051771159E-02
3.070000000E+01 9.999962478E-01 1.673344141E-07 4.038573207E-02
3.080000000E+01 9.999962721E-01 1.662495909E-07 4.025460956E-02
3.090000000E+01 9.999962962E-01 1.651752830E-07 4.012433575E-02
3.100000000E+01 9.999963201E-01 1.641113548E-07 3.999490241E-02
3.110000000E+01 9.999963437E-01 1.630576730E-07 3.986630143E-02
3.120000000E+01 9.999963671E-01 1.620141066E-07 3.973852483E-02
3.130000000E+01 9.999963903E-01 1.609805264E-07 3.961156468E-02
3.140000000E+01 9.999964132E-01 1.599568055E-07 3.948541320E-02
3.150000000E+01 9.999964359E-01 1.589428188E-07 3.936006269E-02
3.160000000E+01 9.999964585E-01 1.579384433E-07 3.923550552E-02
3.170000000E+01 9.999964808E-01 1.569435579E-07 3.911173421E-02
