# 04/03/2022 
# Density retrieved from www.chemicool.com/densities.html 
# Includes the real (n) and complex (k) part of the  refractive index. 
# Element, Ra  (Z = 88) 
# Nominal density, g cm-3 =  5.5 
#    E [keV]      n       k    Wavelength [nm] 
1.000000000E+00 9.994506965E-01 3.354400173E-04 1.239841975E+00
1.100000000E+00 9.995222463E-01 2.578903303E-04 1.127129068E+00
1.200000000E+00 9.995874711E-01 2.071373086E-04 1.033201645E+00
1.300000000E+00 9.996380239E-01 1.693583839E-04 9.537245958E-01
1.400000000E+00 9.996766386E-01 1.306533095E-04 8.856014104E-01
1.500000000E+00 9.997151342E-01 1.094644862E-04 8.265613164E-01
1.600000000E+00 9.997458524E-01 8.717066237E-05 7.749012341E-01
1.700000000E+00 9.997728612E-01 7.240365355E-05 7.293188086E-01
1.800000000E+00 9.997967516E-01 6.303596614E-05 6.888010970E-01
1.900000000E+00 9.998175832E-01 5.657521615E-05 6.525484077E-01
2.000000000E+00 9.998348237E-01 4.361588731E-05 6.199209873E-01
2.100000000E+00 9.998500232E-01 3.741746955E-05 5.904009403E-01
2.200000000E+00 9.998633462E-01 3.407420647E-05 5.635645339E-01
2.300000000E+00 9.998765349E-01 2.800665263E-05 5.390617281E-01
2.400000000E+00 9.998872413E-01 2.444092606E-05 5.166008227E-01
2.500000000E+00 9.998963993E-01 2.188104197E-05 4.959367898E-01
2.600000000E+00 9.999063567E-01 1.888990131E-05 4.768622979E-01
2.700000000E+00 9.999144407E-01 1.671792384E-05 4.592007313E-01
2.800000000E+00 9.999207917E-01 1.532676525E-05 4.428007052E-01
2.900000000E+00 9.999295412E-01 1.334257640E-05 4.275317154E-01
3.000000000E+00 9.999382364E-01 1.189893362E-05 4.132806582E-01
3.100000000E+00 9.999524566E-01 1.430634696E-05 3.999490241E-01
3.200000000E+00 9.999507489E-01 2.437615808E-05 3.874506171E-01
3.300000000E+00 9.999509606E-01 3.037595492E-05 3.757096893E-01
3.400000000E+00 9.999469966E-01 2.789546306E-05 3.646594043E-01
3.500000000E+00 9.999473615E-01 2.514226010E-05 3.542405642E-01
3.600000000E+00 9.999488930E-01 2.276289436E-05 3.444005485E-01
3.700000000E+00 9.999511841E-01 2.073827462E-05 3.350924256E-01
3.800000000E+00 9.999534834E-01 2.117133034E-05 3.262742038E-01
3.900000000E+00 9.999541362E-01 2.026004690E-05 3.179081986E-01
4.000000000E+00 9.999550344E-01 1.858122908E-05 3.099604936E-01
4.100000000E+00 9.999560879E-01 1.682379242E-05 3.024004816E-01
4.200000000E+00 9.999578660E-01 1.580919291E-05 2.952004701E-01
4.300000000E+00 9.999591468E-01 1.424753841E-05 2.883353429E-01
4.400000000E+00 9.999608347E-01 1.320624294E-05 2.817822670E-01
4.500000000E+00 9.999624598E-01 1.265828706E-05 2.755204388E-01
4.600000000E+00 9.999635070E-01 1.192942127E-05 2.695308640E-01
4.700000000E+00 9.999647744E-01 1.114309523E-05 2.637961648E-01
4.800000000E+00 9.999660392E-01 1.058655740E-05 2.583004114E-01
4.900000000E+00 9.999670346E-01 1.000187046E-05 2.530289744E-01
5.000000000E+00 9.999681479E-01 9.515222083E-06 2.479683949E-01
5.100000000E+00 9.999690551E-01 8.766692437E-06 2.431062695E-01
5.200000000E+00 9.999700470E-01 8.217802415E-06 2.384311490E-01
5.300000000E+00 9.999711666E-01 7.910622189E-06 2.339324480E-01
5.400000000E+00 9.999719625E-01 7.207273820E-06 2.296003657E-01
5.500000000E+00 9.999728574E-01 6.765760351E-06 2.254258136E-01
5.600000000E+00 9.999737799E-01 6.465926734E-06 2.214003526E-01
5.700000000E+00 9.999746918E-01 6.241042240E-06 2.175161359E-01
5.800000000E+00 9.999753659E-01 5.635520691E-06 2.137658577E-01
5.900000000E+00 9.999761285E-01 5.311791130E-06 2.101427076E-01
6.000000000E+00 9.999768806E-01 5.060322140E-06 2.066403291E-01
6.100000000E+00 9.999776324E-01 4.895769875E-06 2.032527827E-01
6.200000000E+00 9.999783481E-01 4.739115428E-06 1.999745120E-01
6.300000000E+00 9.999789025E-01 4.232852639E-06 1.968003134E-01
6.400000000E+00 9.999795228E-01 4.006845326E-06 1.937253085E-01
6.500000000E+00 9.999801237E-01 3.816291182E-06 1.907449192E-01
6.600000000E+00 9.999807214E-01 3.701522095E-06 1.878548446E-01
6.700000000E+00 9.999812926E-01 3.591853474E-06 1.850510410E-01
6.800000000E+00 9.999817818E-01 3.243616052E-06 1.823297021E-01
6.900000000E+00 9.999822900E-01 3.081736080E-06 1.796872427E-01
7.000000000E+00 9.999827772E-01 2.929619222E-06 1.771202821E-01
7.100000000E+00 9.999832452E-01 2.788809283E-06 1.746256302E-01
7.200000000E+00 9.999837074E-01 2.711880323E-06 1.722002742E-01
7.300000000E+00 9.999841507E-01 2.638091123E-06 1.698413664E-01
7.400000000E+00 9.999845761E-01 2.567273118E-06 1.675462128E-01
7.500000000E+00 9.999849847E-01 2.499268906E-06 1.653122633E-01
7.600000000E+00 9.999853501E-01 2.198653842E-06 1.631371019E-01
7.700000000E+00 9.999857233E-01 2.099982616E-06 1.610184383E-01
7.800000000E+00 9.999860824E-01 2.006664092E-06 1.589540993E-01
7.900000000E+00 9.999864282E-01 1.918350380E-06 1.569420221E-01
8.000000000E+00 9.999867616E-01 1.838486578E-06 1.549802468E-01
8.100000000E+00 9.999870865E-01 1.793372062E-06 1.530669104E-01
8.200000000E+00 9.999873995E-01 1.749897992E-06 1.512002408E-01
8.300000000E+00 9.999877013E-01 1.707985788E-06 1.493785512E-01
8.400000000E+00 9.999879924E-01 1.667561522E-06 1.476002351E-01
8.500000000E+00 9.999882733E-01 1.628555584E-06 1.458637617E-01
8.600000000E+00 9.999885479E-01 1.423464899E-06 1.441676715E-01
8.700000000E+00 9.999888102E-01 1.366322714E-06 1.425105718E-01
8.800000000E+00 9.999890636E-01 1.311942122E-06 1.408911335E-01
8.900000000E+00 9.999893084E-01 1.260163267E-06 1.393080870E-01
9.000000000E+00 9.999895451E-01 1.210837111E-06 1.377602194E-01
9.100000000E+00 9.999897741E-01 1.163824603E-06 1.362463708E-01
9.200000000E+00 9.999899953E-01 1.132015894E-06 1.347654320E-01
9.300000000E+00 9.999902093E-01 1.107802350E-06 1.333163414E-01
9.400000000E+00 9.999904165E-01 1.084357461E-06 1.318980824E-01
9.500000000E+00 9.999906172E-01 1.061649034E-06 1.305096815E-01
9.600000000E+00 9.999908117E-01 1.039646542E-06 1.291502057E-01
9.700000000E+00 9.999910002E-01 1.018321026E-06 1.278187603E-01
9.800000000E+00 9.999911829E-01 9.976449947E-07 1.265144872E-01
9.900000000E+00 9.999913835E-01 8.649024554E-07 1.252365631E-01
1.000000000E+01 9.999915577E-01 8.345292378E-07 1.239841975E-01
1.010000000E+01 9.999917267E-01 8.054388844E-07 1.227566311E-01
1.020000000E+01 9.999918906E-01 7.775664509E-07 1.215531348E-01
1.030000000E+01 9.999920498E-01 7.508508424E-07 1.203730072E-01
1.040000000E+01 9.999922042E-01 7.252345516E-07 1.192155745E-01
1.050000000E+01 9.999923543E-01 7.006634177E-07 1.180801881E-01
1.060000000E+01 9.999924994E-01 6.800090599E-07 1.169662240E-01
1.070000000E+01 9.999926390E-01 6.673580048E-07 1.158730817E-01
1.080000000E+01 9.999927746E-01 6.550567384E-07 1.148001828E-01
1.090000000E+01 9.999929066E-01 6.430924835E-07 1.137469701E-01
1.100000000E+01 9.999930350E-01 6.314530411E-07 1.127129068E-01
1.110000000E+01 9.999931599E-01 6.201267589E-07 1.116974752E-01
1.120000000E+01 9.999932815E-01 6.091025029E-07 1.107001763E-01
1.130000000E+01 9.999933999E-01 5.983696293E-07 1.097205287E-01
1.140000000E+01 9.999935471E-01 5.234132540E-07 1.087580679E-01
1.150000000E+01 9.999936623E-01 5.073144515E-07 1.078123456E-01
1.160000000E+01 9.999937745E-01 4.918098111E-07 1.068829288E-01
1.170000000E+01 9.999938837E-01 4.768730445E-07 1.059693995E-01
1.180000000E+01 9.999939901E-01 4.624792262E-07 1.050713538E-01
1.190000000E+01 9.999940937E-01 4.486047123E-07 1.041884012E-01
1.200000000E+01 9.999941947E-01 4.352270653E-07 1.033201645E-01
1.210000000E+01 9.999942931E-01 4.223249831E-07 1.024662789E-01
1.220000000E+01 9.999943883E-01 4.113564887E-07 1.016263914E-01
1.230000000E+01 9.999944791E-01 4.046949552E-07 1.008001605E-01
1.240000000E+01 9.999945678E-01 3.981939372E-07 9.998725601E-02
1.250000000E+01 9.999946544E-01 3.918483186E-07 9.918735797E-02
1.260000000E+01 9.999947389E-01 3.856531858E-07 9.840015671E-02
1.270000000E+01 9.999948214E-01 3.796038178E-07 9.762535233E-02
1.280000000E+01 9.999949323E-01 3.455308407E-07 9.686265426E-02
1.290000000E+01 9.999950151E-01 3.360196703E-07 9.611178098E-02
1.300000000E+01 9.999950958E-01 3.268223788E-07 9.537245958E-02
1.310000000E+01 9.999951747E-01 3.179265441E-07 9.464442554E-02
1.320000000E+01 9.999952516E-01 3.093203204E-07 9.392742232E-02
1.330000000E+01 9.999953267E-01 3.009924076E-07 9.322120110E-02
1.340000000E+01 9.999954000E-01 2.929320225E-07 9.252552049E-02
1.350000000E+01 9.999954710E-01 2.857182511E-07 9.184014627E-02
1.360000000E+01 9.999955374E-01 2.815319597E-07 9.116485107E-02
1.370000000E+01 9.999956023E-01 2.774370039E-07 9.049941420E-02
1.380000000E+01 9.999956658E-01 2.734307460E-07 8.984362135E-02
1.390000000E+01 9.999957555E-01 2.568712725E-07 8.919726436E-02
1.400000000E+01 9.999958222E-01 2.503375581E-07 8.856014104E-02
1.410000000E+01 9.999958873E-01 2.440029340E-07 8.793205493E-02
1.420000000E+01 9.999959510E-01 2.378601237E-07 8.731281511E-02
1.430000000E+01 9.999960123E-01 2.322808869E-07 8.670223598E-02
1.440000000E+01 9.999960675E-01 2.290659653E-07 8.610013712E-02
1.450000000E+01 9.999961216E-01 2.259173297E-07 8.550634307E-02
1.460000000E+01 9.999962058E-01 2.152214728E-07 8.492068319E-02
1.470000000E+01 9.999962668E-01 2.099825008E-07 8.434299147E-02
1.480000000E+01 9.999963239E-01 2.054959706E-07 8.377310639E-02
1.490000000E+01 9.999963731E-01 2.027468916E-07 8.321087078E-02
1.500000000E+01 9.999964588E-01 1.953995497E-07 8.265613164E-02
1.510000000E+01 9.999965138E-01 1.917940611E-07 8.210874004E-02
1.520000000E+01 9.999966015E-01 1.913236800E-07 8.156855096E-02
1.530000000E+01 9.999966783E-01 2.004558542E-07 8.103542318E-02
1.540000000E+01 9.999967708E-01 2.618066615E-07 8.050921913E-02
1.550000000E+01 9.999968131E-01 3.262365225E-07 7.998980481E-02
1.560000000E+01 9.999968210E-01 3.754393304E-07 7.947704965E-02
1.570000000E+01 9.999968183E-01 3.919086320E-07 7.897082641E-02
1.580000000E+01 9.999968275E-01 3.897557629E-07 7.847101105E-02
1.590000000E+01 9.999968467E-01 3.848552730E-07 7.797748268E-02
1.600000000E+01 9.999968860E-01 3.800596155E-07 7.749012341E-02
1.610000000E+01 9.999968911E-01 3.669887552E-07 7.700881830E-02
1.620000000E+01 9.999969237E-01 3.610429269E-07 7.653345522E-02
1.630000000E+01 9.999969613E-01 3.566265412E-07 7.606392482E-02
1.640000000E+01 9.999969791E-01 3.430093440E-07 7.560012040E-02
1.650000000E+01 9.999970085E-01 3.354139601E-07 7.514193785E-02
1.660000000E+01 9.999970402E-01 3.293372303E-07 7.468927558E-02
1.670000000E+01 9.999970755E-01 3.254048807E-07 7.424203441E-02
1.680000000E+01 9.999971102E-01 3.215425425E-07 7.380011753E-02
1.690000000E+01 9.999971340E-01 3.070866955E-07 7.336343045E-02
1.700000000E+01 9.999971647E-01 3.004596899E-07 7.293188086E-02
1.710000000E+01 9.999971950E-01 2.940012106E-07 7.250537863E-02
1.720000000E+01 9.999972265E-01 2.895992770E-07 7.208383573E-02
1.730000000E+01 9.999972585E-01 2.862609847E-07 7.166716616E-02
1.740000000E+01 9.999972899E-01 2.829800836E-07 7.125528590E-02
1.750000000E+01 9.999973206E-01 2.699608574E-07 7.084811283E-02
1.760000000E+01 9.999973509E-01 2.643241286E-07 7.044556674E-02
1.770000000E+01 9.999973807E-01 2.588259882E-07 7.004756919E-02
1.780000000E+01 9.999974100E-01 2.559185864E-07 6.965404352E-02
1.790000000E+01 9.999974450E-01 2.482986440E-07 6.926491478E-02
1.800000000E+01 9.999974764E-01 2.432253836E-07 6.888010970E-02
1.810000000E+01 9.999975065E-01 2.387668299E-07 6.849955661E-02
1.820000000E+01 9.999975447E-01 2.359325047E-07 6.812318542E-02
1.830000000E+01 9.999975803E-01 2.331863724E-07 6.775092757E-02
1.840000000E+01 9.999976183E-01 2.395902234E-07 6.738271601E-02
1.850000000E+01 9.999976510E-01 2.427806594E-07 6.701848511E-02
1.860000000E+01 9.999976803E-01 2.666252936E-07 6.665817068E-02
1.870000000E+01 9.999976952E-01 2.774741315E-07 6.630170987E-02
1.880000000E+01 9.999977133E-01 2.834308148E-07 6.594904120E-02
1.890000000E+01 9.999977265E-01 2.839050449E-07 6.560010448E-02
1.900000000E+01 9.999977449E-01 2.826465735E-07 6.525484077E-02
1.910000000E+01 9.999977644E-01 2.862234751E-07 6.491319239E-02
1.920000000E+01 9.999977846E-01 2.880721124E-07 6.457510284E-02
1.930000000E+01 9.999978067E-01 2.863865928E-07 6.424051682E-02
1.940000000E+01 9.999978133E-01 2.916721355E-07 6.390938013E-02
1.950000000E+01 9.999978272E-01 2.929936550E-07 6.358163972E-02
1.960000000E+01 9.999978494E-01 2.900115507E-07 6.325724360E-02
1.970000000E+01 9.999978548E-01 2.842271205E-07 6.293614084E-02
1.980000000E+01 9.999978711E-01 2.804272438E-07 6.261828154E-02
1.990000000E+01 9.999978924E-01 2.776159609E-07 6.230361681E-02
2.000000000E+01 9.999979028E-01 2.700708344E-07 6.199209873E-02
2.010000000E+01 9.999979192E-01 2.653692908E-07 6.168368033E-02
2.020000000E+01 9.999979353E-01 2.607671910E-07 6.137831557E-02
2.030000000E+01 9.999979552E-01 2.580349419E-07 6.107595934E-02
2.040000000E+01 9.999979752E-01 2.555113879E-07 6.077656738E-02
2.050000000E+01 9.999979949E-01 2.530246739E-07 6.048009632E-02
2.060000000E+01 9.999980030E-01 2.433778391E-07 6.018650362E-02
2.070000000E+01 9.999980194E-01 2.392540083E-07 5.989574756E-02
2.080000000E+01 9.999980356E-01 2.352149729E-07 5.960778724E-02
2.090000000E+01 9.999980530E-01 2.321187554E-07 5.932258252E-02
2.100000000E+01 9.999980715E-01 2.299133640E-07 5.904009403E-02
2.110000000E+01 9.999980898E-01 2.277392546E-07 5.876028316E-02
2.120000000E+01 9.999981077E-01 2.255958382E-07 5.848311201E-02
2.130000000E+01 9.999981169E-01 2.162991461E-07 5.820854341E-02
2.140000000E+01 9.999981327E-01 2.127429776E-07 5.793654087E-02
2.150000000E+01 9.999981482E-01 2.092576451E-07 5.766706859E-02
2.160000000E+01 9.999981635E-01 2.058414476E-07 5.740009142E-02
2.170000000E+01 9.999981794E-01 2.030904634E-07 5.713557487E-02
2.180000000E+01 9.999981961E-01 2.012315216E-07 5.687348507E-02
2.190000000E+01 9.999982125E-01 1.993979865E-07 5.661378879E-02
2.200000000E+01 9.999982287E-01 1.975893973E-07 5.635645339E-02
2.210000000E+01 9.999982447E-01 1.958053035E-07 5.610144681E-02
2.220000000E+01 9.999982536E-01 1.867308276E-07 5.584873759E-02
2.230000000E+01 9.999982680E-01 1.837588699E-07 5.559829482E-02
2.240000000E+01 9.999982823E-01 1.808439338E-07 5.535008815E-02
2.250000000E+01 9.999982963E-01 1.779847024E-07 5.510408776E-02
2.260000000E+01 9.999983102E-01 1.751999688E-07 5.486026436E-02
2.270000000E+01 9.999983251E-01 1.736597567E-07 5.461858919E-02
2.280000000E+01 9.999983397E-01 1.721397662E-07 5.437903397E-02
2.290000000E+01 9.999983542E-01 1.706396446E-07 5.414157094E-02
2.300000000E+01 9.999983685E-01 1.691590473E-07 5.390617281E-02
2.310000000E+01 9.999983826E-01 1.676976369E-07 5.367281275E-02
2.320000000E+01 9.999983917E-01 1.595833325E-07 5.344146442E-02
2.330000000E+01 9.999984047E-01 1.571501271E-07 5.321210191E-02
2.340000000E+01 9.999984175E-01 1.547616333E-07 5.298469977E-02
2.350000000E+01 9.999984302E-01 1.524168622E-07 5.275923296E-02
2.360000000E+01 9.999984427E-01 1.501148501E-07 5.253567689E-02
2.370000000E+01 9.999984553E-01 1.480492092E-07 5.231400737E-02
2.380000000E+01 9.999984682E-01 1.468077118E-07 5.209420061E-02
2.390000000E+01 9.999984810E-01 1.455817655E-07 5.187623325E-02
2.400000000E+01 9.999984936E-01 1.443711116E-07 5.166008227E-02
2.410000000E+01 9.999985061E-01 1.431754968E-07 5.144572509E-02
2.420000000E+01 9.999985184E-01 1.419946730E-07 5.123313945E-02
2.430000000E+01 9.999985306E-01 1.408283973E-07 5.102230348E-02
2.440000000E+01 9.999985389E-01 1.333186913E-07 5.081319568E-02
2.450000000E+01 9.999985503E-01 1.313855971E-07 5.060579488E-02
2.460000000E+01 9.999985616E-01 1.294862957E-07 5.040008027E-02
2.470000000E+01 9.999985727E-01 1.276200756E-07 5.019603136E-02
2.480000000E+01 9.999985837E-01 1.257862432E-07 4.999362801E-02
2.490000000E+01 9.999985946E-01 1.239841217E-07 4.979285038E-02
2.500000000E+01 9.999986054E-01 1.222130512E-07 4.959367898E-02
2.510000000E+01 9.999986164E-01 1.211050665E-07 4.939609460E-02
2.520000000E+01 9.999986274E-01 1.201458222E-07 4.920007836E-02
2.530000000E+01 9.999986382E-01 1.191979299E-07 4.900561164E-02
2.540000000E+01 9.999986489E-01 1.182612111E-07 4.881267616E-02
2.550000000E+01 9.999986595E-01 1.173354909E-07 4.862125391E-02
2.560000000E+01 9.999986699E-01 1.164205978E-07 4.843132713E-02
2.570000000E+01 9.999986803E-01 1.155163635E-07 4.824287839E-02
2.580000000E+01 9.999986880E-01 1.092094771E-07 4.805589049E-02
2.590000000E+01 9.999986978E-01 1.077046054E-07 4.787034651E-02
2.600000000E+01 9.999987075E-01 1.062246723E-07 4.768622979E-02
2.610000000E+01 9.999987171E-01 1.047691803E-07 4.750352393E-02
2.620000000E+01 9.999987265E-01 1.033376437E-07 4.732221277E-02
2.630000000E+01 9.999987359E-01 1.019295883E-07 4.714228040E-02
2.640000000E+01 9.999987452E-01 1.005445505E-07 4.696371116E-02
2.650000000E+01 9.999987544E-01 9.935347816E-08 4.678648961E-02
2.660000000E+01 9.999987638E-01 9.860786370E-08 4.661060055E-02
2.670000000E+01 9.999987730E-01 9.787061123E-08 4.643602901E-02
2.680000000E+01 9.999987822E-01 9.714159618E-08 4.626276025E-02
2.690000000E+01 9.999987912E-01 9.642069629E-08 4.609077972E-02
2.700000000E+01 9.999988002E-01 9.570779155E-08 4.592007313E-02
2.710000000E+01 9.999988090E-01 9.500276418E-08 4.575062637E-02
2.720000000E+01 9.999988177E-01 9.430549854E-08 4.558242554E-02
2.730000000E+01 9.999988248E-01 8.915244951E-08 4.541545694E-02
2.740000000E+01 9.999988331E-01 8.798613914E-08 4.524970710E-02
2.750000000E+01 9.999988414E-01 8.683813559E-08 4.508516271E-02
2.760000000E+01 9.999988496E-01 8.570809321E-08 4.492181067E-02
2.770000000E+01 9.999988577E-01 8.459567403E-08 4.475963807E-02
2.780000000E+01 9.999988658E-01 8.350054757E-08 4.459863218E-02
2.790000000E+01 9.999988737E-01 8.242239061E-08 4.443878045E-02
2.800000000E+01 9.999988816E-01 8.136088709E-08 4.428007052E-02
2.810000000E+01 9.999988894E-01 8.031572782E-08 4.412249020E-02
2.820000000E+01 9.999988972E-01 7.968313803E-08 4.396602747E-02
2.830000000E+01 9.999989050E-01 7.912100124E-08 4.381067048E-02
2.840000000E+01 9.999989127E-01 7.856479206E-08 4.365640756E-02
2.850000000E+01 9.999989203E-01 7.801442743E-08 4.350322718E-02
2.860000000E+01 9.999989278E-01 7.746982577E-08 4.335111799E-02
2.870000000E+01 9.999989353E-01 7.693090687E-08 4.320006880E-02
2.880000000E+01 9.999989427E-01 7.639759197E-08 4.305006856E-02
2.890000000E+01 9.999989500E-01 7.586980362E-08 4.290110639E-02
2.900000000E+01 9.999989572E-01 7.534746574E-08 4.275317154E-02
2.910000000E+01 9.999989633E-01 7.082009985E-08 4.260625342E-02
2.920000000E+01 9.999989703E-01 6.994699196E-08 4.246034160E-02
2.930000000E+01 9.999989772E-01 6.908676972E-08 4.231542575E-02
2.940000000E+01 9.999989841E-01 6.823920451E-08 4.217149573E-02
2.950000000E+01 9.999989908E-01 6.740407245E-08 4.202854151E-02
2.960000000E+01 9.999989975E-01 6.658115433E-08 4.188655320E-02
2.970000000E+01 9.999990042E-01 6.577023551E-08 4.174552103E-02
2.980000000E+01 9.999990108E-01 6.497110576E-08 4.160543539E-02
2.990000000E+01 9.999990173E-01 6.418355918E-08 4.146628678E-02
3.000000000E+01 9.999990237E-01 6.340739412E-08 4.132806582E-02
3.010000000E+01 9.999990302E-01 6.291904895E-08 4.119076328E-02
3.020000000E+01 9.999990366E-01 6.250305638E-08 4.105437002E-02
3.030000000E+01 9.999990430E-01 6.209117575E-08 4.091887705E-02
3.040000000E+01 9.999990492E-01 6.168335304E-08 4.078427548E-02
3.050000000E+01 9.999990555E-01 6.127953512E-08 4.065055654E-02
3.060000000E+01 9.999990616E-01 6.087966972E-08 4.051771159E-02
3.070000000E+01 9.999990677E-01 6.048370544E-08 4.038573207E-02
3.080000000E+01 9.999990738E-01 6.009159169E-08 4.025460956E-02
3.090000000E+01 9.999990798E-01 5.970327871E-08 4.012433575E-02
3.100000000E+01 9.999990857E-01 5.931871753E-08 3.999490241E-02
3.110000000E+01 9.999990910E-01 5.567063404E-08 3.986630143E-02
3.120000000E+01 9.999990968E-01 5.502523279E-08 3.973852483E-02
3.130000000E+01 9.999991025E-01 5.438876536E-08 3.961156468E-02
3.140000000E+01 9.999991081E-01 5.376108319E-08 3.948541320E-02
3.150000000E+01 9.999991137E-01 5.314204057E-08 3.936006269E-02
3.160000000E+01 9.999991193E-01 5.253149468E-08 3.923550552E-02
3.170000000E+01 9.999991248E-01 5.192930545E-08 3.911173421E-02
