# 04/03/2022 
# Density retrieved from www.chemicool.com/densities.html 
# Includes the real (n) and complex (k) part of the  refractive index. 
# Element, Rb  (Z = 37) 
# Nominal density, g cm-3 =  1.53 
#    E [keV]      n       k    Wavelength [nm] 
1.000000000E+00 9.997787061E-01 4.780797549E-05 1.239841975E+00
1.100000000E+00 9.998171556E-01 3.826797025E-05 1.127129068E+00
1.200000000E+00 9.998487255E-01 2.603446393E-05 1.033201645E+00
1.300000000E+00 9.998711885E-01 2.196286440E-05 9.537245958E-01
1.400000000E+00 9.998927901E-01 1.545480441E-05 8.856014104E-01
1.500000000E+00 9.999094380E-01 1.221374641E-05 8.265613164E-01
1.600000000E+00 9.999218715E-01 1.016793618E-05 7.749012341E-01
1.700000000E+00 9.999377837E-01 7.942272671E-06 7.293188086E-01
1.800000000E+00 9.999611023E-01 1.364824245E-05 6.888010970E-01
1.900000000E+00 9.999531866E-01 3.000304238E-05 6.525484077E-01
2.000000000E+00 9.999510788E-01 2.593311315E-05 6.199209873E-01
2.100000000E+00 9.999512149E-01 2.467696529E-05 5.904009403E-01
2.200000000E+00 9.999530943E-01 2.155071689E-05 5.635645339E-01
2.300000000E+00 9.999544485E-01 1.803941126E-05 5.390617281E-01
2.400000000E+00 9.999569346E-01 1.555307039E-05 5.166008227E-01
2.500000000E+00 9.999597878E-01 1.385765025E-05 4.959367898E-01
2.600000000E+00 9.999619450E-01 1.184457063E-05 4.768622979E-01
2.700000000E+00 9.999641932E-01 1.030924974E-05 4.592007313E-01
2.800000000E+00 9.999663605E-01 9.070553555E-06 4.428007052E-01
2.900000000E+00 9.999683790E-01 8.015282734E-06 4.275317154E-01
3.000000000E+00 9.999702479E-01 7.109736840E-06 4.132806582E-01
3.100000000E+00 9.999720390E-01 6.466841519E-06 3.999490241E-01
3.200000000E+00 9.999736091E-01 5.726266607E-06 3.874506171E-01
3.300000000E+00 9.999750966E-01 5.158286462E-06 3.757096893E-01
3.400000000E+00 9.999764636E-01 4.642386734E-06 3.646594043E-01
3.500000000E+00 9.999777191E-01 4.156325562E-06 3.542405642E-01
3.600000000E+00 9.999788886E-01 3.738091304E-06 3.444005485E-01
3.700000000E+00 9.999799697E-01 3.357109502E-06 3.350924256E-01
3.800000000E+00 9.999809847E-01 3.060601118E-06 3.262742038E-01
3.900000000E+00 9.999819266E-01 2.786799132E-06 3.179081986E-01
4.000000000E+00 9.999828067E-01 2.569941915E-06 3.099604936E-01
4.100000000E+00 9.999836186E-01 2.313741515E-06 3.024004816E-01
4.200000000E+00 9.999843815E-01 2.119125254E-06 2.952004701E-01
4.300000000E+00 9.999850977E-01 1.999600412E-06 2.883353429E-01
4.400000000E+00 9.999857609E-01 1.788751804E-06 2.817822670E-01
4.500000000E+00 9.999863852E-01 1.647788458E-06 2.755204388E-01
4.600000000E+00 9.999869701E-01 1.543652469E-06 2.695308640E-01
4.700000000E+00 9.999875194E-01 1.405526561E-06 2.637961648E-01
4.800000000E+00 9.999880342E-01 1.325773732E-06 2.583004114E-01
4.900000000E+00 9.999885203E-01 1.206004804E-06 2.530289744E-01
5.000000000E+00 9.999889751E-01 1.152729137E-06 2.479683949E-01
5.100000000E+00 9.999894080E-01 1.043289737E-06 2.431062695E-01
5.200000000E+00 9.999898152E-01 9.687519900E-07 2.384311490E-01
5.300000000E+00 9.999901979E-01 9.142894370E-07 2.339324480E-01
5.400000000E+00 9.999905576E-01 8.807404076E-07 2.296003657E-01
5.500000000E+00 9.999909060E-01 7.879849381E-07 2.254258136E-01
5.600000000E+00 9.999912310E-01 7.369785969E-07 2.214003526E-01
5.700000000E+00 9.999915397E-01 6.902544432E-07 2.175161359E-01
5.800000000E+00 9.999918325E-01 6.471495293E-07 2.137658577E-01
5.900000000E+00 9.999921105E-01 6.073101278E-07 2.101427076E-01
6.000000000E+00 9.999923718E-01 5.846608063E-07 2.066403291E-01
6.100000000E+00 9.999926263E-01 5.366935875E-07 2.032527827E-01
6.200000000E+00 9.999928639E-01 5.120589867E-07 1.999745120E-01
6.300000000E+00 9.999930887E-01 4.959321605E-07 1.968003134E-01
6.400000000E+00 9.999933030E-01 4.805553576E-07 1.937253085E-01
6.500000000E+00 9.999935074E-01 4.658827798E-07 1.907449192E-01
6.600000000E+00 9.999937184E-01 4.011659050E-07 1.878548446E-01
6.700000000E+00 9.999939077E-01 3.792152885E-07 1.850510410E-01
6.800000000E+00 9.999940885E-01 3.586602591E-07 1.823297021E-01
6.900000000E+00 9.999942614E-01 3.393958685E-07 1.796872427E-01
7.000000000E+00 9.999944267E-01 3.217004576E-07 1.771202821E-01
7.100000000E+00 9.999945826E-01 3.127022896E-07 1.746256302E-01
7.200000000E+00 9.999947320E-01 3.040764356E-07 1.722002742E-01
7.300000000E+00 9.999948753E-01 2.958026350E-07 1.698413664E-01
7.400000000E+00 9.999950129E-01 2.878619872E-07 1.675462128E-01
7.500000000E+00 9.999951585E-01 2.488157234E-07 1.653122633E-01
7.600000000E+00 9.999952875E-01 2.367280229E-07 1.631371019E-01
7.700000000E+00 9.999954114E-01 2.253215164E-07 1.610184383E-01
7.800000000E+00 9.999955304E-01 2.145507661E-07 1.589540993E-01
7.900000000E+00 9.999956449E-01 2.043738577E-07 1.569420221E-01
8.000000000E+00 9.999957546E-01 1.957262757E-07 1.549802468E-01
8.100000000E+00 9.999958588E-01 1.909233599E-07 1.530669104E-01
8.200000000E+00 9.999959592E-01 1.862950869E-07 1.512002408E-01
8.300000000E+00 9.999960560E-01 1.818330911E-07 1.493785512E-01
8.400000000E+00 9.999961493E-01 1.775295018E-07 1.476002351E-01
8.500000000E+00 9.999962503E-01 1.554614206E-07 1.458637617E-01
8.600000000E+00 9.999963389E-01 1.487545888E-07 1.441676715E-01
8.700000000E+00 9.999964244E-01 1.423831822E-07 1.425105718E-01
8.800000000E+00 9.999965069E-01 1.363273274E-07 1.408911335E-01
8.900000000E+00 9.999965866E-01 1.305685219E-07 1.393080870E-01
9.000000000E+00 9.999966636E-01 1.250895256E-07 1.377602194E-01
9.100000000E+00 9.999967373E-01 1.210859923E-07 1.362463708E-01
9.200000000E+00 9.999968079E-01 1.184679941E-07 1.347654320E-01
9.300000000E+00 9.999968762E-01 1.159339926E-07 1.333163414E-01
9.400000000E+00 9.999969423E-01 1.134804325E-07 1.318980824E-01
9.500000000E+00 9.999970063E-01 1.111039448E-07 1.305096815E-01
9.600000000E+00 9.999970683E-01 1.088013348E-07 1.291502057E-01
9.700000000E+00 9.999971391E-01 9.445057547E-08 1.278187603E-01
9.800000000E+00 9.999971987E-01 9.084356458E-08 1.265144872E-01
9.900000000E+00 9.999972564E-01 8.739572276E-08 1.252365631E-01
1.000000000E+01 9.999973124E-01 8.409872856E-08 1.239841975E-01
1.010000000E+01 9.999973667E-01 8.094476733E-08 1.227566311E-01
1.020000000E+01 9.999974193E-01 7.792649592E-08 1.215531348E-01
1.030000000E+01 9.999974702E-01 7.529855540E-08 1.203730072E-01
1.040000000E+01 9.999975186E-01 7.385746803E-08 1.192155745E-01
1.050000000E+01 9.999975656E-01 7.245735820E-08 1.180801881E-01
1.060000000E+01 9.999976113E-01 7.109668692E-08 1.169662240E-01
1.070000000E+01 9.999976558E-01 6.977398674E-08 1.158730817E-01
1.080000000E+01 9.999976990E-01 6.848785787E-08 1.148001828E-01
1.090000000E+01 9.999977410E-01 6.723696441E-08 1.137469701E-01
1.100000000E+01 9.999977923E-01 5.863779124E-08 1.127129068E-01
1.110000000E+01 9.999978333E-01 5.665216288E-08 1.116974752E-01
1.120000000E+01 9.999978731E-01 5.474416355E-08 1.107001763E-01
1.130000000E+01 9.999979118E-01 5.291019541E-08 1.097205287E-01
1.140000000E+01 9.999979494E-01 5.114685508E-08 1.087580679E-01
1.150000000E+01 9.999979861E-01 4.945092154E-08 1.078123456E-01
1.160000000E+01 9.999980218E-01 4.781934499E-08 1.068829288E-01
1.170000000E+01 9.999980561E-01 4.650642847E-08 1.059693995E-01
1.180000000E+01 9.999980889E-01 4.572152394E-08 1.050713538E-01
1.190000000E+01 9.999981209E-01 4.495632366E-08 1.041884012E-01
1.200000000E+01 9.999981521E-01 4.421017356E-08 1.033201645E-01
1.210000000E+01 9.999981825E-01 4.348244651E-08 1.024662789E-01
1.220000000E+01 9.999982203E-01 3.950044310E-08 1.016263914E-01
1.230000000E+01 9.999982505E-01 3.828924312E-08 1.008001605E-01
1.240000000E+01 9.999982800E-01 3.712088872E-08 9.998725601E-02
1.250000000E+01 9.999983087E-01 3.599358244E-08 9.918735797E-02
1.260000000E+01 9.999983367E-01 3.490561479E-08 9.840015671E-02
1.270000000E+01 9.999983641E-01 3.385535930E-08 9.762535233E-02
1.280000000E+01 9.999983899E-01 3.318719538E-08 9.686265426E-02
1.290000000E+01 9.999984147E-01 3.267465953E-08 9.611178098E-02
1.300000000E+01 9.999984390E-01 3.217390587E-08 9.537245958E-02
1.310000000E+01 9.999984628E-01 3.168457603E-08 9.464442554E-02
1.320000000E+01 9.999984946E-01 2.922665336E-08 9.392742232E-02
1.330000000E+01 9.999985189E-01 2.839271342E-08 9.322120110E-02
1.340000000E+01 9.999985426E-01 2.758614289E-08 9.252552049E-02
1.350000000E+01 9.999985657E-01 2.680587690E-08 9.184014627E-02
1.360000000E+01 9.999985869E-01 2.636734171E-08 9.116485107E-02
1.370000000E+01 9.999986075E-01 2.598382185E-08 9.049941420E-02
1.380000000E+01 9.999986347E-01 2.464885250E-08 8.984362135E-02
1.390000000E+01 9.999986567E-01 2.397553376E-08 8.919726436E-02
1.400000000E+01 9.999986781E-01 2.332337424E-08 8.856014104E-02
1.410000000E+01 9.999986973E-01 2.292483354E-08 8.793205493E-02
1.420000000E+01 9.999987156E-01 2.260308547E-08 8.731281511E-02
1.430000000E+01 9.999987435E-01 2.151017605E-08 8.670223598E-02
1.440000000E+01 9.999987643E-01 2.094309485E-08 8.610013712E-02
1.450000000E+01 9.999987828E-01 2.054109635E-08 8.550634307E-02
1.460000000E+01 9.999988085E-01 1.987119714E-08 8.492068319E-02
1.470000000E+01 9.999988299E-01 1.937677653E-08 8.434299147E-02
1.480000000E+01 9.999988556E-01 1.919997592E-08 8.377310639E-02
1.490000000E+01 9.999988814E-01 2.001666710E-08 8.321087078E-02
1.500000000E+01 9.999989162E-01 2.882690525E-08 8.265613164E-02
1.510000000E+01 9.999989445E-01 4.610586237E-08 8.210874004E-02
1.520000000E+01 9.999989601E-01 7.987979035E-08 8.156855096E-02
1.530000000E+01 9.999989638E-01 9.734091838E-08 8.103542318E-02
1.540000000E+01 9.999989534E-01 1.100722498E-07 8.050921913E-02
1.550000000E+01 9.999989525E-01 1.106092092E-07 7.998980481E-02
1.560000000E+01 9.999989561E-01 1.086586147E-07 7.947704965E-02
1.570000000E+01 9.999989628E-01 1.065925098E-07 7.897082641E-02
1.580000000E+01 9.999989686E-01 1.039467204E-07 7.847101105E-02
1.590000000E+01 9.999989778E-01 1.019631287E-07 7.797748268E-02
1.600000000E+01 9.999989905E-01 1.006925725E-07 7.749012341E-02
1.610000000E+01 9.999989940E-01 9.724317464E-08 7.700881830E-02
1.620000000E+01 9.999990030E-01 9.520029241E-08 7.653345522E-02
1.630000000E+01 9.999990152E-01 9.403577379E-08 7.606392482E-02
1.640000000E+01 9.999990218E-01 9.100929428E-08 7.560012040E-02
1.650000000E+01 9.999990312E-01 8.902853838E-08 7.514193785E-02
1.660000000E+01 9.999990407E-01 8.720992094E-08 7.468927558E-02
1.670000000E+01 9.999990521E-01 8.616861779E-08 7.424203441E-02
1.680000000E+01 9.999990634E-01 8.514585394E-08 7.380011753E-02
1.690000000E+01 9.999990690E-01 8.162142546E-08 7.336343045E-02
1.700000000E+01 9.999990783E-01 7.988757633E-08 7.293188086E-02
1.710000000E+01 9.999990886E-01 7.877634709E-08 7.250537863E-02
1.720000000E+01 9.999990992E-01 7.786300585E-08 7.208383573E-02
1.730000000E+01 9.999991096E-01 7.696545709E-08 7.166716616E-02
1.740000000E+01 9.999991152E-01 7.343905687E-08 7.125528590E-02
1.750000000E+01 9.999991242E-01 7.192658818E-08 7.084811283E-02
1.760000000E+01 9.999991330E-01 7.045124430E-08 7.044556674E-02
1.770000000E+01 9.999991425E-01 6.954137368E-08 7.004756919E-02
1.780000000E+01 9.999991521E-01 6.876220478E-08 6.965404352E-02
1.790000000E+01 9.999991592E-01 6.631584303E-08 6.926491478E-02
1.800000000E+01 9.999991677E-01 6.500454764E-08 6.888010970E-02
1.810000000E+01 9.999991761E-01 6.372440261E-08 6.849955661E-02
1.820000000E+01 9.999991851E-01 6.302321448E-08 6.812318542E-02
1.830000000E+01 9.999991940E-01 6.233631809E-08 6.775092757E-02
1.840000000E+01 9.999992007E-01 6.007447466E-08 6.738271601E-02
1.850000000E+01 9.999992087E-01 5.891418867E-08 6.701848511E-02
1.860000000E+01 9.999992166E-01 5.786302039E-08 6.665817068E-02
1.870000000E+01 9.999992250E-01 5.724581925E-08 6.630170987E-02
1.880000000E+01 9.999992332E-01 5.663844085E-08 6.594904120E-02
1.890000000E+01 9.999992396E-01 5.453727202E-08 6.560010448E-02
1.900000000E+01 9.999992471E-01 5.350494374E-08 6.525484077E-02
1.910000000E+01 9.999992546E-01 5.260246552E-08 6.491319239E-02
1.920000000E+01 9.999992623E-01 5.205595011E-08 6.457510284E-02
1.930000000E+01 9.999992690E-01 5.052648196E-08 6.424051682E-02
1.940000000E+01 9.999992761E-01 4.957572035E-08 6.390938013E-02
1.950000000E+01 9.999992831E-01 4.864613145E-08 6.358163972E-02
1.960000000E+01 9.999992903E-01 4.803818110E-08 6.325724360E-02
1.970000000E+01 9.999992974E-01 4.755172164E-08 6.293614084E-02
1.980000000E+01 9.999993036E-01 4.599234216E-08 6.261828154E-02
1.990000000E+01 9.999993103E-01 4.514664435E-08 6.230361681E-02
2.000000000E+01 9.999993169E-01 4.447088645E-08 6.199209873E-02
2.010000000E+01 9.999993237E-01 4.402949081E-08 6.168368033E-02
2.020000000E+01 9.999993304E-01 4.359463430E-08 6.137831557E-02
2.030000000E+01 9.999993361E-01 4.196374305E-08 6.107595934E-02
2.040000000E+01 9.999993423E-01 4.121102594E-08 6.077656738E-02
2.050000000E+01 9.999993484E-01 4.047427025E-08 6.048009632E-02
2.060000000E+01 9.999993546E-01 3.993341911E-08 6.018650362E-02
2.070000000E+01 9.999993609E-01 3.954852093E-08 5.989574756E-02
2.080000000E+01 9.999993670E-01 3.916916081E-08 5.960778724E-02
2.090000000E+01 9.999993723E-01 3.770150209E-08 5.932258252E-02
2.100000000E+01 9.999993781E-01 3.704465925E-08 5.904009403E-02
2.110000000E+01 9.999993838E-01 3.640743215E-08 5.876028316E-02
2.120000000E+01 9.999993896E-01 3.606477587E-08 5.848311201E-02
2.130000000E+01 9.999993953E-01 3.572693440E-08 5.820854341E-02
2.140000000E+01 9.999994004E-01 3.456098896E-08 5.793654087E-02
2.150000000E+01 9.999994058E-01 3.397221282E-08 5.766706859E-02
2.160000000E+01 9.999994111E-01 3.339529198E-08 5.740009142E-02
2.170000000E+01 9.999994165E-01 3.302877286E-08 5.713557487E-02
2.180000000E+01 9.999994218E-01 3.272645159E-08 5.687348507E-02
2.190000000E+01 9.999994267E-01 3.174854272E-08 5.661378879E-02
2.200000000E+01 9.999994318E-01 3.122164143E-08 5.635645339E-02
2.210000000E+01 9.999994368E-01 3.076250988E-08 5.610144681E-02
2.220000000E+01 9.999994417E-01 3.019232459E-08 5.584873759E-02
2.230000000E+01 9.999994467E-01 2.984777876E-08 5.559829482E-02
2.240000000E+01 9.999994516E-01 2.958187560E-08 5.535008815E-02
2.250000000E+01 9.999994562E-01 2.873878908E-08 5.510408776E-02
2.260000000E+01 9.999994609E-01 2.827370781E-08 5.486026436E-02
2.270000000E+01 9.999994655E-01 2.781753378E-08 5.461858919E-02
2.280000000E+01 9.999994702E-01 2.751477512E-08 5.437903397E-02
2.290000000E+01 9.999994748E-01 2.727499609E-08 5.414157094E-02
2.300000000E+01 9.999994791E-01 2.650675639E-08 5.390617281E-02
2.310000000E+01 9.999994835E-01 2.608644150E-08 5.367281275E-02
2.320000000E+01 9.999994879E-01 2.567400795E-08 5.344146442E-02
2.330000000E+01 9.999994922E-01 2.533048701E-08 5.321210191E-02
2.340000000E+01 9.999994965E-01 2.511444973E-08 5.298469977E-02
2.350000000E+01 9.999995008E-01 2.490116450E-08 5.275923296E-02
2.360000000E+01 9.999995048E-01 2.409738648E-08 5.253567689E-02
2.370000000E+01 9.999995089E-01 2.372116375E-08 5.231400737E-02
2.380000000E+01 9.999995129E-01 2.338869078E-08 5.209420061E-02
2.390000000E+01 9.999995170E-01 2.319337897E-08 5.187623325E-02
2.400000000E+01 9.999995210E-01 2.300050348E-08 5.166008227E-02
2.410000000E+01 9.999995250E-01 2.281002394E-08 5.144572509E-02
2.420000000E+01 9.999995286E-01 2.194757568E-08 5.123313945E-02
2.430000000E+01 9.999995325E-01 2.161211889E-08 5.102230348E-02
2.440000000E+01 9.999995362E-01 2.128267447E-08 5.081319568E-02
2.450000000E+01 9.999995400E-01 2.095911370E-08 5.060579488E-02
2.460000000E+01 9.999995437E-01 2.071971819E-08 5.040008027E-02
2.470000000E+01 9.999995473E-01 2.055228681E-08 5.019603136E-02
2.480000000E+01 9.999995510E-01 2.038687672E-08 4.999362801E-02
2.490000000E+01 9.999995546E-01 2.022345552E-08 4.979285038E-02
2.500000000E+01 9.999995581E-01 2.006199145E-08 4.959367898E-02
2.510000000E+01 9.999995617E-01 1.990245339E-08 4.939609460E-02
2.520000000E+01 9.999995649E-01 1.886930467E-08 4.920007836E-02
2.530000000E+01 9.999995683E-01 1.859141156E-08 4.900561164E-02
2.540000000E+01 9.999995716E-01 1.831830911E-08 4.881267616E-02
2.550000000E+01 9.999995749E-01 1.804989868E-08 4.862125391E-02
2.560000000E+01 9.999995782E-01 1.778608405E-08 4.843132713E-02
2.570000000E+01 9.999995815E-01 1.752677127E-08 4.824287839E-02
2.580000000E+01 9.999995847E-01 1.733549312E-08 4.805589049E-02
2.590000000E+01 9.999995879E-01 1.720188674E-08 4.787034651E-02
2.600000000E+01 9.999995910E-01 1.706981900E-08 4.768622979E-02
2.610000000E+01 9.999995942E-01 1.693926637E-08 4.750352393E-02
2.620000000E+01 9.999995973E-01 1.681020576E-08 4.732221277E-02
2.630000000E+01 9.999996003E-01 1.668261453E-08 4.714228040E-02
2.640000000E+01 9.999996033E-01 1.655647045E-08 4.696371116E-02
2.650000000E+01 9.999996063E-01 1.643175172E-08 4.678648961E-02
2.660000000E+01 9.999996093E-01 1.630843694E-08 4.661060055E-02
2.670000000E+01 9.999996120E-01 1.520756276E-08 4.643602901E-02
2.680000000E+01 9.999996149E-01 1.499637983E-08 4.626276025E-02
2.690000000E+01 9.999996177E-01 1.478863352E-08 4.609077972E-02
2.700000000E+01 9.999996205E-01 1.458425702E-08 4.592007313E-02
2.710000000E+01 9.999996233E-01 1.438318504E-08 4.575062637E-02
2.720000000E+01 9.999996260E-01 1.418535377E-08 4.558242554E-02
2.730000000E+01 9.999996287E-01 1.399070084E-08 4.541545694E-02
2.740000000E+01 9.999996314E-01 1.379916531E-08 4.524970710E-02
2.750000000E+01 9.999996341E-01 1.361068759E-08 4.508516271E-02
2.760000000E+01 9.999996367E-01 1.346644075E-08 4.492181067E-02
2.770000000E+01 9.999996393E-01 1.336938564E-08 4.475963807E-02
2.780000000E+01 9.999996419E-01 1.327337600E-08 4.459863218E-02
2.790000000E+01 9.999996445E-01 1.317839687E-08 4.443878045E-02
2.800000000E+01 9.999996470E-01 1.308443355E-08 4.428007052E-02
2.810000000E+01 9.999996495E-01 1.299147162E-08 4.412249020E-02
2.820000000E+01 9.999996520E-01 1.289949689E-08 4.396602747E-02
2.830000000E+01 9.999996545E-01 1.280849543E-08 4.381067048E-02
2.840000000E+01 9.999996569E-01 1.271845356E-08 4.365640756E-02
2.850000000E+01 9.999996593E-01 1.262935784E-08 4.350322718E-02
2.860000000E+01 9.999996617E-01 1.254119505E-08 4.335111799E-02
2.870000000E+01 9.999996639E-01 1.160728362E-08 4.320006880E-02
2.880000000E+01 9.999996662E-01 1.145671694E-08 4.305006856E-02
2.890000000E+01 9.999996685E-01 1.130843445E-08 4.290110639E-02
2.900000000E+01 9.999996708E-01 1.116239476E-08 4.275317154E-02
2.910000000E+01 9.999996730E-01 1.101855736E-08 4.260625342E-02
2.920000000E+01 9.999996753E-01 1.087688261E-08 4.246034160E-02
2.930000000E+01 9.999996775E-01 1.073733170E-08 4.231542575E-02
2.940000000E+01 9.999996797E-01 1.059986664E-08 4.217149573E-02
2.950000000E+01 9.999996818E-01 1.046445023E-08 4.202854151E-02
2.960000000E+01 9.999996840E-01 1.033104604E-08 4.188655320E-02
2.970000000E+01 9.999996861E-01 1.019961843E-08 4.174552103E-02
2.980000000E+01 9.999996882E-01 1.007013247E-08 4.160543539E-02
2.990000000E+01 9.999996902E-01 9.942553974E-09 4.146628678E-02
3.000000000E+01 9.999996923E-01 9.859544770E-09 4.132806582E-02
3.010000000E+01 9.999996943E-01 9.794141669E-09 4.119076328E-02
3.020000000E+01 9.999996964E-01 9.729387190E-09 4.105437002E-02
3.030000000E+01 9.999996984E-01 9.665272787E-09 4.091887705E-02
3.040000000E+01 9.999997003E-01 9.601790051E-09 4.078427548E-02
3.050000000E+01 9.999997023E-01 9.538930710E-09 4.065055654E-02
3.060000000E+01 9.999997043E-01 9.476686630E-09 4.051771159E-02
3.070000000E+01 9.999997062E-01 9.415049808E-09 4.038573207E-02
3.080000000E+01 9.999997081E-01 9.354012368E-09 4.025460956E-02
3.090000000E+01 9.999997100E-01 9.293566566E-09 4.012433575E-02
3.100000000E+01 9.999997118E-01 9.233704780E-09 3.999490241E-02
3.110000000E+01 9.999997137E-01 9.174419509E-09 3.986630143E-02
3.120000000E+01 9.999997155E-01 9.115703375E-09 3.973852483E-02
3.130000000E+01 9.999997173E-01 9.057549116E-09 3.961156468E-02
3.140000000E+01 9.999997191E-01 8.270051167E-09 3.948541320E-02
3.150000000E+01 9.999997209E-01 8.170806841E-09 3.936006269E-02
3.160000000E+01 9.999997226E-01 8.072945598E-09 3.923550552E-02
3.170000000E+01 9.999997244E-01 7.976444457E-09 3.911173421E-02
