# 04/03/2022 
# Density retrieved from www.chemicool.com/densities.html 
# Includes the real (n) and complex (k) part of the  refractive index. 
# Element, Sc  (Z = 21) 
# Nominal density, g cm-3 =  3.0 
#    E [keV]      n       k    Wavelength [nm] 
1.000000000E+00 9.994316905E-01 1.591031445E-04 1.239841975E+00
1.100000000E+00 9.995262024E-01 1.110376665E-04 1.127129068E+00
1.200000000E+00 9.996005807E-01 8.136557154E-05 1.033201645E+00
1.300000000E+00 9.996594108E-01 6.119153208E-05 9.537245958E-01
1.400000000E+00 9.997063822E-01 4.812124331E-05 8.856014104E-01
1.500000000E+00 9.997445318E-01 3.754016659E-05 8.265613164E-01
1.600000000E+00 9.997757742E-01 3.026269166E-05 7.749012341E-01
1.700000000E+00 9.998020728E-01 2.328221253E-05 7.293188086E-01
1.800000000E+00 9.998237785E-01 1.911984362E-05 6.888010970E-01
1.900000000E+00 9.998418400E-01 1.716019206E-05 6.525484077E-01
2.000000000E+00 9.998580993E-01 1.284678596E-05 6.199209873E-01
2.100000000E+00 9.998714250E-01 1.123324990E-05 5.904009403E-01
2.200000000E+00 9.998833889E-01 9.057348393E-06 5.635645339E-01
2.300000000E+00 9.998935884E-01 7.677519006E-06 5.390617281E-01
2.400000000E+00 9.999023689E-01 6.838529894E-06 5.166008227E-01
2.500000000E+00 9.999104621E-01 5.645820586E-06 4.959367898E-01
2.600000000E+00 9.999174461E-01 4.877509028E-06 4.768622979E-01
2.700000000E+00 9.999235923E-01 4.307037316E-06 4.592007313E-01
2.800000000E+00 9.999289526E-01 4.004885463E-06 4.428007052E-01
2.900000000E+00 9.999342603E-01 3.249922324E-06 4.275317154E-01
3.000000000E+00 9.999387503E-01 2.859786245E-06 4.132806582E-01
3.100000000E+00 9.999427064E-01 2.611228048E-06 3.999490241E-01
3.200000000E+00 9.999462313E-01 2.450576322E-06 3.874506171E-01
3.300000000E+00 9.999499607E-01 2.004189417E-06 3.757096893E-01
3.400000000E+00 9.999530311E-01 1.789819068E-06 3.646594043E-01
3.500000000E+00 9.999557678E-01 1.636440591E-06 3.542405642E-01
3.600000000E+00 9.999581910E-01 1.546789911E-06 3.444005485E-01
3.700000000E+00 9.999609425E-01 1.302146198E-06 3.350924256E-01
3.800000000E+00 9.999631086E-01 1.191787019E-06 3.262742038E-01
3.900000000E+00 9.999653456E-01 1.067419517E-06 3.179081986E-01
4.000000000E+00 9.999672980E-01 9.728596259E-07 3.099604936E-01
4.100000000E+00 9.999693040E-01 8.836054913E-07 3.024004816E-01
4.200000000E+00 9.999709349E-01 8.236503080E-07 2.952004701E-01
4.300000000E+00 9.999732758E-01 7.384911912E-07 2.883353429E-01
4.400000000E+00 9.999760550E-01 8.717692794E-07 2.817822670E-01
4.500000000E+00 9.999779414E-01 4.395980432E-06 2.755204388E-01
4.600000000E+00 9.999767778E-01 4.983308023E-06 2.695308640E-01
4.700000000E+00 9.999766708E-01 4.626031220E-06 2.637961648E-01
4.800000000E+00 9.999770585E-01 4.294613031E-06 2.583004114E-01
4.900000000E+00 9.999776050E-01 3.989878506E-06 2.530289744E-01
5.000000000E+00 9.999782177E-01 3.716314780E-06 2.479683949E-01
5.100000000E+00 9.999789199E-01 3.509764887E-06 2.431062695E-01
5.200000000E+00 9.999794613E-01 3.235794053E-06 2.384311490E-01
5.300000000E+00 9.999800888E-01 3.021179446E-06 2.339324480E-01
5.400000000E+00 9.999807564E-01 2.867421694E-06 2.296003657E-01
5.500000000E+00 9.999813142E-01 2.661954960E-06 2.254258136E-01
5.600000000E+00 9.999818697E-01 2.476664124E-06 2.214003526E-01
5.700000000E+00 9.999824286E-01 2.323126393E-06 2.175161359E-01
5.800000000E+00 9.999829986E-01 2.214356006E-06 2.137658577E-01
5.900000000E+00 9.999834968E-01 2.062426751E-06 2.101427076E-01
6.000000000E+00 9.999839863E-01 1.928427604E-06 2.066403291E-01
6.100000000E+00 9.999844673E-01 1.815988957E-06 2.032527827E-01
6.200000000E+00 9.999849411E-01 1.728516494E-06 1.999745120E-01
6.300000000E+00 9.999853843E-01 1.629586580E-06 1.968003134E-01
6.400000000E+00 9.999858012E-01 1.525493534E-06 1.937253085E-01
6.500000000E+00 9.999862115E-01 1.442317309E-06 1.907449192E-01
6.600000000E+00 9.999866050E-01 1.364266197E-06 1.878548446E-01
6.700000000E+00 9.999869959E-01 1.314119885E-06 1.850510410E-01
6.800000000E+00 9.999873490E-01 1.226719467E-06 1.823297021E-01
6.900000000E+00 9.999876971E-01 1.160693877E-06 1.796872427E-01
7.000000000E+00 9.999880404E-01 1.116744394E-06 1.771202821E-01
7.100000000E+00 9.999883561E-01 1.045342517E-06 1.746256302E-01
7.200000000E+00 9.999886718E-01 1.004821302E-06 1.722002742E-01
7.300000000E+00 9.999889663E-01 9.434013148E-07 1.698413664E-01
7.400000000E+00 9.999892569E-01 9.041238020E-07 1.675462128E-01
7.500000000E+00 9.999895415E-01 8.801745670E-07 1.653122633E-01
7.600000000E+00 9.999898001E-01 8.129462466E-07 1.631371019E-01
7.700000000E+00 9.999900575E-01 7.743969216E-07 1.610184383E-01
7.800000000E+00 9.999903071E-01 7.435078953E-07 1.589540993E-01
7.900000000E+00 9.999905509E-01 7.248040434E-07 1.569420221E-01
8.000000000E+00 9.999907857E-01 7.067971929E-07 1.549802468E-01
8.100000000E+00 9.999909997E-01 6.421066238E-07 1.530669104E-01
8.200000000E+00 9.999912146E-01 6.134163893E-07 1.512002408E-01
8.300000000E+00 9.999914225E-01 5.888676867E-07 1.493785512E-01
8.400000000E+00 9.999916255E-01 5.749304838E-07 1.476002351E-01
8.500000000E+00 9.999918214E-01 5.614822828E-07 1.458637617E-01
8.600000000E+00 9.999920105E-01 5.485004723E-07 1.441676715E-01
8.700000000E+00 9.999921856E-01 4.925599893E-07 1.425105718E-01
8.800000000E+00 9.999923606E-01 4.719574426E-07 1.408911335E-01
8.900000000E+00 9.999925297E-01 4.523593719E-07 1.393080870E-01
9.000000000E+00 9.999926933E-01 4.337076622E-07 1.377602194E-01
9.100000000E+00 9.999928527E-01 4.226227408E-07 1.362463708E-01
9.200000000E+00 9.999930073E-01 4.134852217E-07 1.347654320E-01
9.300000000E+00 9.999931568E-01 4.046408737E-07 1.333163414E-01
9.400000000E+00 9.999933017E-01 3.960772880E-07 1.318980824E-01
9.500000000E+00 9.999934396E-01 3.543676279E-07 1.305096815E-01
9.600000000E+00 9.999935751E-01 3.406291037E-07 1.291502057E-01
9.700000000E+00 9.999937065E-01 3.275080082E-07 1.278187603E-01
9.800000000E+00 9.999938339E-01 3.149714426E-07 1.265144872E-01
9.900000000E+00 9.999939574E-01 3.029885506E-07 1.252365631E-01
1.000000000E+01 9.999940776E-01 2.959778881E-07 1.239841975E-01
1.010000000E+01 9.999941943E-01 2.901459544E-07 1.227566311E-01
1.020000000E+01 9.999943076E-01 2.844847060E-07 1.215531348E-01
1.030000000E+01 9.999944176E-01 2.789875465E-07 1.203730072E-01
1.040000000E+01 9.999945244E-01 2.736481954E-07 1.192155745E-01
1.050000000E+01 9.999946282E-01 2.684606695E-07 1.180801881E-01
1.060000000E+01 9.999947301E-01 2.346024343E-07 1.169662240E-01
1.070000000E+01 9.999948283E-01 2.263946078E-07 1.158730817E-01
1.080000000E+01 9.999949237E-01 2.185189997E-07 1.148001828E-01
1.090000000E+01 9.999950166E-01 2.109596640E-07 1.137469701E-01
1.100000000E+01 9.999951069E-01 2.037015472E-07 1.127129068E-01
1.110000000E+01 9.999951948E-01 1.967304309E-07 1.116974752E-01
1.120000000E+01 9.999952803E-01 1.900328789E-07 1.107001763E-01
1.130000000E+01 9.999953636E-01 1.835961882E-07 1.097205287E-01
1.140000000E+01 9.999954446E-01 1.797085252E-07 1.087580679E-01
1.150000000E+01 9.999955235E-01 1.765967481E-07 1.078123456E-01
1.160000000E+01 9.999956003E-01 1.735651006E-07 1.068829288E-01
1.170000000E+01 9.999956752E-01 1.706108550E-07 1.059693995E-01
1.180000000E+01 9.999957482E-01 1.677313986E-07 1.050713538E-01
1.190000000E+01 9.999958194E-01 1.649242281E-07 1.041884012E-01
1.200000000E+01 9.999958888E-01 1.621869440E-07 1.033201645E-01
1.210000000E+01 9.999959591E-01 1.417346853E-07 1.024662789E-01
1.220000000E+01 9.999960253E-01 1.373321768E-07 1.016263914E-01
1.230000000E+01 9.999960900E-01 1.330869300E-07 1.008001605E-01
1.240000000E+01 9.999961531E-01 1.289922889E-07 9.998725601E-02
1.250000000E+01 9.999962147E-01 1.250419259E-07 9.918735797E-02
1.260000000E+01 9.999962748E-01 1.212298234E-07 9.840015671E-02
1.270000000E+01 9.999963335E-01 1.175502564E-07 9.762535233E-02
1.280000000E+01 9.999963908E-01 1.139977763E-07 9.686265426E-02
1.290000000E+01 9.999964467E-01 1.109700281E-07 9.611178098E-02
1.300000000E+01 9.999965012E-01 1.092693632E-07 9.537245958E-02
1.310000000E+01 9.999965544E-01 1.076074960E-07 9.464442554E-02
1.320000000E+01 9.999966064E-01 1.059832552E-07 9.392742232E-02
1.330000000E+01 9.999966573E-01 1.043955135E-07 9.322120110E-02
1.340000000E+01 9.999967070E-01 1.028431855E-07 9.252552049E-02
1.350000000E+01 9.999967556E-01 1.013252257E-07 9.184014627E-02
1.360000000E+01 9.999968031E-01 9.984062708E-08 9.116485107E-02
1.370000000E+01 9.999968522E-01 8.798980551E-08 9.049941420E-02
1.380000000E+01 9.999968979E-01 8.555913915E-08 8.984362135E-02
1.390000000E+01 9.999969427E-01 8.320551258E-08 8.919726436E-02
1.400000000E+01 9.999969865E-01 8.092603246E-08 8.856014104E-02
1.410000000E+01 9.999970293E-01 7.871793221E-08 8.793205493E-02
1.420000000E+01 9.999970713E-01 7.657856569E-08 8.731281511E-02
1.430000000E+01 9.999971124E-01 7.450540122E-08 8.670223598E-02
1.440000000E+01 9.999971526E-01 7.249601583E-08 8.610013712E-02
1.450000000E+01 9.999971920E-01 7.054809001E-08 8.550634307E-02
1.460000000E+01 9.999972304E-01 6.910493980E-08 8.492068319E-02
1.470000000E+01 9.999972680E-01 6.816793450E-08 8.434299147E-02
1.480000000E+01 9.999973048E-01 6.724985832E-08 8.377310639E-02
1.490000000E+01 9.999973408E-01 6.635020480E-08 8.321087078E-02
1.500000000E+01 9.999973761E-01 6.546848430E-08 8.265613164E-02
1.510000000E+01 9.999974108E-01 6.460422335E-08 8.210874004E-02
1.520000000E+01 9.999974447E-01 6.375696402E-08 8.156855096E-02
1.530000000E+01 9.999974780E-01 6.292626326E-08 8.103542318E-02
1.540000000E+01 9.999975107E-01 6.211169239E-08 8.050921913E-02
1.550000000E+01 9.999975450E-01 5.458288116E-08 7.998980481E-02
1.560000000E+01 9.999975766E-01 5.323181254E-08 7.947704965E-02
1.570000000E+01 9.999976076E-01 5.191884714E-08 7.897082641E-02
1.580000000E+01 9.999976379E-01 5.064271320E-08 7.847101105E-02
1.590000000E+01 9.999976678E-01 4.940218849E-08 7.797748268E-02
1.600000000E+01 9.999976970E-01 4.819609812E-08 7.749012341E-02
1.610000000E+01 9.999977257E-01 4.702331239E-08 7.700881830E-02
1.620000000E+01 9.999977539E-01 4.588274485E-08 7.653345522E-02
1.630000000E+01 9.999977816E-01 4.477335035E-08 7.606392482E-02
1.640000000E+01 9.999978087E-01 4.387175595E-08 7.560012040E-02
1.650000000E+01 9.999978352E-01 4.334158854E-08 7.514193785E-02
1.660000000E+01 9.999978612E-01 4.282097358E-08 7.468927558E-02
1.670000000E+01 9.999978867E-01 4.230968295E-08 7.424203441E-02
1.680000000E+01 9.999979118E-01 4.180749532E-08 7.380011753E-02
1.690000000E+01 9.999979364E-01 4.131419586E-08 7.336343045E-02
1.700000000E+01 9.999979606E-01 4.082957605E-08 7.293188086E-02
1.710000000E+01 9.999979844E-01 4.035343346E-08 7.250537863E-02
1.720000000E+01 9.999980078E-01 3.988557152E-08 7.208383573E-02
1.730000000E+01 9.999980307E-01 3.942579932E-08 7.166716616E-02
1.740000000E+01 9.999980551E-01 3.479896268E-08 7.125528590E-02
1.750000000E+01 9.999980774E-01 3.402884395E-08 7.084811283E-02
1.760000000E+01 9.999980993E-01 3.327812817E-08 7.044556674E-02
1.770000000E+01 9.999981209E-01 3.254623664E-08 7.004756919E-02
1.780000000E+01 9.999981421E-01 3.183261080E-08 6.965404352E-02
1.790000000E+01 9.999981629E-01 3.113671143E-08 6.926491478E-02
1.800000000E+01 9.999981834E-01 3.045801789E-08 6.888010970E-02
1.810000000E+01 9.999982036E-01 2.979602740E-08 6.849955661E-02
1.820000000E+01 9.999982234E-01 2.915025430E-08 6.812318542E-02
1.830000000E+01 9.999982429E-01 2.852022941E-08 6.775092757E-02
1.840000000E+01 9.999982621E-01 2.790549940E-08 6.738271601E-02
1.850000000E+01 9.999982809E-01 2.730562614E-08 6.701848511E-02
1.860000000E+01 9.999982994E-01 2.690174403E-08 6.665817068E-02
1.870000000E+01 9.999983176E-01 2.661479415E-08 6.630170987E-02
1.880000000E+01 9.999983354E-01 2.633241106E-08 6.594904120E-02
1.890000000E+01 9.999983530E-01 2.605449838E-08 6.560010448E-02
1.900000000E+01 9.999983703E-01 2.578096223E-08 6.525484077E-02
1.910000000E+01 9.999983873E-01 2.551171121E-08 6.491319239E-02
1.920000000E+01 9.999984040E-01 2.524665627E-08 6.457510284E-02
1.930000000E+01 9.999984205E-01 2.498571067E-08 6.424051682E-02
1.940000000E+01 9.999984368E-01 2.472878990E-08 6.390938013E-02
1.950000000E+01 9.999984528E-01 2.447581161E-08 6.358163972E-02
1.960000000E+01 9.999984685E-01 2.422669556E-08 6.325724360E-02
1.970000000E+01 9.999984854E-01 2.139154634E-08 6.293614084E-02
1.980000000E+01 9.999985007E-01 2.096948047E-08 6.261828154E-02
1.990000000E+01 9.999985159E-01 2.055685159E-08 6.230361681E-02
2.000000000E+01 9.999985308E-01 2.015341009E-08 6.199209873E-02
2.010000000E+01 9.999985454E-01 1.975891407E-08 6.168368033E-02
2.020000000E+01 9.999985599E-01 1.937312907E-08 6.137831557E-02
2.030000000E+01 9.999985742E-01 1.899582778E-08 6.107595934E-02
2.040000000E+01 9.999985882E-01 1.862678986E-08 6.077656738E-02
2.050000000E+01 9.999986020E-01 1.826580159E-08 6.048009632E-02
2.060000000E+01 9.999986157E-01 1.791265574E-08 6.018650362E-02
2.070000000E+01 9.999986291E-01 1.756715129E-08 5.989574756E-02
2.080000000E+01 9.999986423E-01 1.722909323E-08 5.960778724E-02
2.090000000E+01 9.999986553E-01 1.695863907E-08 5.932258252E-02
2.100000000E+01 9.999986681E-01 1.679751278E-08 5.904009403E-02
2.110000000E+01 9.999986807E-01 1.663867194E-08 5.876028316E-02
2.120000000E+01 9.999986931E-01 1.648207354E-08 5.848311201E-02
2.130000000E+01 9.999987054E-01 1.632767558E-08 5.820854341E-02
2.140000000E+01 9.999987174E-01 1.617543701E-08 5.793654087E-02
2.150000000E+01 9.999987293E-01 1.602531776E-08 5.766706859E-02
2.160000000E+01 9.999987411E-01 1.587727866E-08 5.740009142E-02
2.170000000E+01 9.999987527E-01 1.573128148E-08 5.713557487E-02
2.180000000E+01 9.999987641E-01 1.558728881E-08 5.687348507E-02
2.190000000E+01 9.999987753E-01 1.544526414E-08 5.661378879E-02
2.200000000E+01 9.999987864E-01 1.530517176E-08 5.635645339E-02
2.210000000E+01 9.999987983E-01 1.359461613E-08 5.610144681E-02
2.220000000E+01 9.999988092E-01 1.335397468E-08 5.584873759E-02
2.230000000E+01 9.999988199E-01 1.311814600E-08 5.559829482E-02
2.240000000E+01 9.999988305E-01 1.288701629E-08 5.535008815E-02
2.250000000E+01 9.999988409E-01 1.266047484E-08 5.510408776E-02
2.260000000E+01 9.999988512E-01 1.243841403E-08 5.486026436E-02
2.270000000E+01 9.999988614E-01 1.222072917E-08 5.461858919E-02
2.280000000E+01 9.999988714E-01 1.200731842E-08 5.437903397E-02
2.290000000E+01 9.999988813E-01 1.179808272E-08 5.414157094E-02
2.300000000E+01 9.999988911E-01 1.159292568E-08 5.390617281E-02
2.310000000E+01 9.999989007E-01 1.139175350E-08 5.367281275E-02
2.320000000E+01 9.999989102E-01 1.119447492E-08 5.344146442E-02
2.330000000E+01 9.999989196E-01 1.100100108E-08 5.321210191E-02
2.340000000E+01 9.999989289E-01 1.081124554E-08 5.298469977E-02
2.350000000E+01 9.999989380E-01 1.064684245E-08 5.275923296E-02
2.360000000E+01 9.999989470E-01 1.055680613E-08 5.253567689E-02
2.370000000E+01 9.999989559E-01 1.046790710E-08 5.231400737E-02
2.380000000E+01 9.999989646E-01 1.038012630E-08 5.209420061E-02
2.390000000E+01 9.999989733E-01 1.029344504E-08 5.187623325E-02
2.400000000E+01 9.999989818E-01 1.020784504E-08 5.166008227E-02
2.410000000E+01 9.999989903E-01 1.012330838E-08 5.144572509E-02
2.420000000E+01 9.999989986E-01 1.003981753E-08 5.123313945E-02
2.430000000E+01 9.999990068E-01 9.957355317E-09 5.102230348E-02
2.440000000E+01 9.999990149E-01 9.875904899E-09 5.081319568E-02
2.450000000E+01 9.999990230E-01 9.795449797E-09 5.060579488E-02
2.460000000E+01 9.999990309E-01 9.715973860E-09 5.040008027E-02
2.470000000E+01 9.999990387E-01 9.637461261E-09 5.019603136E-02
2.480000000E+01 9.999990465E-01 9.559896496E-09 4.999362801E-02
2.490000000E+01 9.999990548E-01 8.471016421E-09 4.979285038E-02
2.500000000E+01 9.999990624E-01 8.337121111E-09 4.959367898E-02
2.510000000E+01 9.999990699E-01 8.205610215E-09 4.939609460E-02
2.520000000E+01 9.999990773E-01 8.076433538E-09 4.920007836E-02
2.530000000E+01 9.999990846E-01 7.949542119E-09 4.900561164E-02
2.540000000E+01 9.999990918E-01 7.824888196E-09 4.881267616E-02
2.550000000E+01 9.999990990E-01 7.702425175E-09 4.862125391E-02
2.560000000E+01 9.999991060E-01 7.582107593E-09 4.843132713E-02
2.570000000E+01 9.999991130E-01 7.463891087E-09 4.824287839E-02
2.580000000E+01 9.999991199E-01 7.347732367E-09 4.805589049E-02
2.590000000E+01 9.999991268E-01 7.233589182E-09 4.787034651E-02
2.600000000E+01 9.999991335E-01 7.121420296E-09 4.768622979E-02
2.610000000E+01 9.999991402E-01 7.011185455E-09 4.750352393E-02
2.620000000E+01 9.999991467E-01 6.902845363E-09 4.732221277E-02
2.630000000E+01 9.999991533E-01 6.796361655E-09 4.714228040E-02
2.640000000E+01 9.999991597E-01 6.709556019E-09 4.696371116E-02
2.650000000E+01 9.999991660E-01 6.659013404E-09 4.678648961E-02
2.660000000E+01 9.999991723E-01 6.609039746E-09 4.661060055E-02
2.670000000E+01 9.999991785E-01 6.559626538E-09 4.643602901E-02
2.680000000E+01 9.999991846E-01 6.510765431E-09 4.626276025E-02
2.690000000E+01 9.999991906E-01 6.462448229E-09 4.609077972E-02
2.700000000E+01 9.999991966E-01 6.414666890E-09 4.592007313E-02
2.710000000E+01 9.999992025E-01 6.367413519E-09 4.575062637E-02
2.720000000E+01 9.999992084E-01 6.320680367E-09 4.558242554E-02
2.730000000E+01 9.999992142E-01 6.274459825E-09 4.541545694E-02
2.740000000E+01 9.999992199E-01 6.228744423E-09 4.524970710E-02
2.750000000E+01 9.999992256E-01 6.183526827E-09 4.508516271E-02
2.760000000E+01 9.999992312E-01 6.138799836E-09 4.492181067E-02
2.770000000E+01 9.999992367E-01 6.094556377E-09 4.475963807E-02
2.780000000E+01 9.999992422E-01 6.050789507E-09 4.459863218E-02
2.790000000E+01 9.999992481E-01 5.382051948E-09 4.443878045E-02
2.800000000E+01 9.999992535E-01 5.305548246E-09 4.428007052E-02
2.810000000E+01 9.999992588E-01 5.230264758E-09 4.412249020E-02
2.820000000E+01 9.999992641E-01 5.156178496E-09 4.396602747E-02
2.830000000E+01 9.999992693E-01 5.083266973E-09 4.381067048E-02
2.840000000E+01 9.999992745E-01 5.011508200E-09 4.365640756E-02
2.850000000E+01 9.999992796E-01 4.940880665E-09 4.350322718E-02
2.860000000E+01 9.999992846E-01 4.871363328E-09 4.335111799E-02
2.870000000E+01 9.999992896E-01 4.802935602E-09 4.320006880E-02
2.880000000E+01 9.999992946E-01 4.735577349E-09 4.305006856E-02
2.890000000E+01 9.999992995E-01 4.669268863E-09 4.290110639E-02
2.900000000E+01 9.999993043E-01 4.603990864E-09 4.275317154E-02
2.910000000E+01 9.999993091E-01 4.539724482E-09 4.260625342E-02
2.920000000E+01 9.999993139E-01 4.476451254E-09 4.246034160E-02
2.930000000E+01 9.999993186E-01 4.414153106E-09 4.231542575E-02
2.940000000E+01 9.999993232E-01 4.352812352E-09 4.217149573E-02
2.950000000E+01 9.999993278E-01 4.292411676E-09 4.202854151E-02
2.960000000E+01 9.999993324E-01 4.259447758E-09 4.188655320E-02
2.970000000E+01 9.999993369E-01 4.230812896E-09 4.174552103E-02
2.980000000E+01 9.999993413E-01 4.202465821E-09 4.160543539E-02
2.990000000E+01 9.999993457E-01 4.174402688E-09 4.146628678E-02
3.000000000E+01 9.999993500E-01 4.146619719E-09 4.132806582E-02
3.010000000E+01 9.999993544E-01 4.119113197E-09 4.119076328E-02
3.020000000E+01 9.999993586E-01 4.091879465E-09 4.105437002E-02
3.030000000E+01 9.999993629E-01 4.064914929E-09 4.091887705E-02
3.040000000E+01 9.999993670E-01 4.038216053E-09 4.078427548E-02
3.050000000E+01 9.999993712E-01 4.011779357E-09 4.065055654E-02
3.060000000E+01 9.999993753E-01 3.985601422E-09 4.051771159E-02
3.070000000E+01 9.999993793E-01 3.959678880E-09 4.038573207E-02
3.080000000E+01 9.999993834E-01 3.934008420E-09 4.025460956E-02
3.090000000E+01 9.999993874E-01 3.908586784E-09 4.012433575E-02
3.100000000E+01 9.999993913E-01 3.883410767E-09 3.999490241E-02
3.110000000E+01 9.999993952E-01 3.858477215E-09 3.986630143E-02
3.120000000E+01 9.999993994E-01 3.438601759E-09 3.973852483E-02
3.130000000E+01 9.999994033E-01 3.394716818E-09 3.961156468E-02
3.140000000E+01 9.999994071E-01 3.351459188E-09 3.948541320E-02
3.150000000E+01 9.999994108E-01 3.308818277E-09 3.936006269E-02
3.160000000E+01 9.999994146E-01 3.266783704E-09 3.923550552E-02
3.170000000E+01 9.999994183E-01 3.225345292E-09 3.911173421E-02
