# 04/03/2022 
# Density retrieved from www.chemicool.com/densities.html 
# Includes the real (n) and complex (k) part of the  refractive index. 
# Element, Se  (Z = 34) 
# Nominal density, g cm-3 =  4.79 
#    E [keV]      n       k    Wavelength [nm] 
1.000000000E+00 9.993612094E-01 1.092674557E-04 1.239841975E+00
1.100000000E+00 9.994789591E-01 8.232934207E-05 1.127129068E+00
1.200000000E+00 9.995808305E-01 5.999912065E-05 1.033201645E+00
1.300000000E+00 9.996645189E-01 4.592247152E-05 9.537245958E-01
1.400000000E+00 9.997693563E-01 3.519395166E-05 8.856014104E-01
1.500000000E+00 9.998064775E-01 1.620257995E-04 8.265613164E-01
1.600000000E+00 9.997705353E-01 1.385198616E-04 7.749012341E-01
1.700000000E+00 9.997753801E-01 1.294408768E-04 7.293188086E-01
1.800000000E+00 9.997786323E-01 1.053128183E-04 6.888010970E-01
1.900000000E+00 9.997938183E-01 8.916568008E-05 6.525484077E-01
2.000000000E+00 9.998078094E-01 7.517787201E-05 6.199209873E-01
2.100000000E+00 9.998210513E-01 6.336945855E-05 5.904009403E-01
2.200000000E+00 9.998336858E-01 5.371024426E-05 5.635645339E-01
2.300000000E+00 9.998456090E-01 4.592147647E-05 5.390617281E-01
2.400000000E+00 9.998567240E-01 3.974498578E-05 5.166008227E-01
2.500000000E+00 9.998663845E-01 3.356443466E-05 4.959367898E-01
2.600000000E+00 9.998756720E-01 2.919373326E-05 4.768622979E-01
2.700000000E+00 9.998841318E-01 2.552067700E-05 4.592007313E-01
2.800000000E+00 9.998918327E-01 2.241594736E-05 4.428007052E-01
2.900000000E+00 9.998988412E-01 1.977653655E-05 4.275317154E-01
3.000000000E+00 9.999052633E-01 1.765314162E-05 4.132806582E-01
3.100000000E+00 9.999110645E-01 1.555966227E-05 3.999490241E-01
3.200000000E+00 9.999164158E-01 1.387893916E-05 3.874506171E-01
3.300000000E+00 9.999213147E-01 1.241356210E-05 3.757096893E-01
3.400000000E+00 9.999258142E-01 1.113899906E-05 3.646594043E-01
3.500000000E+00 9.999299534E-01 1.002748110E-05 3.542405642E-01
3.600000000E+00 9.999337727E-01 9.213258588E-06 3.444005485E-01
3.700000000E+00 9.999372874E-01 8.301884447E-06 3.350924256E-01
3.800000000E+00 9.999405390E-01 7.434098292E-06 3.262742038E-01
3.900000000E+00 9.999435506E-01 6.760622525E-06 3.179081986E-01
4.000000000E+00 9.999463446E-01 6.160402015E-06 3.099604936E-01
4.100000000E+00 9.999489344E-01 5.746725038E-06 3.024004816E-01
4.200000000E+00 9.999513609E-01 5.178063253E-06 2.952004701E-01
4.300000000E+00 9.999536217E-01 4.723880723E-06 2.883353429E-01
4.400000000E+00 9.999557256E-01 4.340312453E-06 2.817822670E-01
4.500000000E+00 9.999576927E-01 3.995879187E-06 2.755204388E-01
4.600000000E+00 9.999595334E-01 3.683861268E-06 2.695308640E-01
4.700000000E+00 9.999612517E-01 3.442367001E-06 2.637961648E-01
4.800000000E+00 9.999628720E-01 3.182106121E-06 2.583004114E-01
4.900000000E+00 9.999643719E-01 3.053549564E-06 2.530289744E-01
5.000000000E+00 9.999658327E-01 2.708014132E-06 2.479683949E-01
5.100000000E+00 9.999671788E-01 2.515356495E-06 2.431062695E-01
5.200000000E+00 9.999684383E-01 2.377895128E-06 2.384311490E-01
5.300000000E+00 9.999696181E-01 2.289009764E-06 2.339324480E-01
5.400000000E+00 9.999707329E-01 2.205016607E-06 2.296003657E-01
5.500000000E+00 9.999718600E-01 1.903739493E-06 2.254258136E-01
5.600000000E+00 9.999728745E-01 1.779965975E-06 2.214003526E-01
5.700000000E+00 9.999738351E-01 1.665540011E-06 2.175161359E-01
5.800000000E+00 9.999747456E-01 1.559628305E-06 2.137658577E-01
5.900000000E+00 9.999756052E-01 1.474261505E-06 2.101427076E-01
6.000000000E+00 9.999764115E-01 1.425528972E-06 2.066403291E-01
6.100000000E+00 9.999771786E-01 1.379173421E-06 2.032527827E-01
6.200000000E+00 9.999779088E-01 1.335042742E-06 1.999745120E-01
6.300000000E+00 9.999786704E-01 1.146745883E-06 1.968003134E-01
6.400000000E+00 9.999793455E-01 1.080832604E-06 1.937253085E-01
6.500000000E+00 9.999799889E-01 1.019307042E-06 1.907449192E-01
6.600000000E+00 9.999806028E-01 9.618242010E-07 1.878548446E-01
6.700000000E+00 9.999811857E-01 9.151273793E-07 1.850510410E-01
6.800000000E+00 9.999817350E-01 8.884097763E-07 1.823297021E-01
6.900000000E+00 9.999822606E-01 8.628453698E-07 1.796872427E-01
7.000000000E+00 9.999827638E-01 8.383687359E-07 1.771202821E-01
7.100000000E+00 9.999832982E-01 7.322458485E-07 1.746256302E-01
7.200000000E+00 9.999837699E-01 6.946516116E-07 1.722002742E-01
7.300000000E+00 9.999842219E-01 6.592920246E-07 1.698413664E-01
7.400000000E+00 9.999846553E-01 6.260100251E-07 1.675462128E-01
7.500000000E+00 9.999850711E-01 5.946613742E-07 1.653122633E-01
7.600000000E+00 9.999854674E-01 5.696518900E-07 1.631371019E-01
7.700000000E+00 9.999858424E-01 5.549518159E-07 1.610184383E-01
7.800000000E+00 9.999862031E-01 5.408134972E-07 1.589540993E-01
7.900000000E+00 9.999865501E-01 5.272086712E-07 1.569420221E-01
8.000000000E+00 9.999868843E-01 5.141108307E-07 1.549802468E-01
8.100000000E+00 9.999872573E-01 4.456097404E-07 1.530669104E-01
8.200000000E+00 9.999875748E-01 4.253607534E-07 1.512002408E-01
8.300000000E+00 9.999878806E-01 4.061745541E-07 1.493785512E-01
8.400000000E+00 9.999881753E-01 3.879851522E-07 1.476002351E-01
8.500000000E+00 9.999884594E-01 3.707313226E-07 1.458637617E-01
8.600000000E+00 9.999887330E-01 3.547906560E-07 1.441676715E-01
8.700000000E+00 9.999889905E-01 3.466814231E-07 1.425105718E-01
8.800000000E+00 9.999892393E-01 3.388470676E-07 1.408911335E-01
8.900000000E+00 9.999894797E-01 3.312753051E-07 1.393080870E-01
9.000000000E+00 9.999897122E-01 3.239545298E-07 1.377602194E-01
9.100000000E+00 9.999899371E-01 3.168737703E-07 1.362463708E-01
9.200000000E+00 9.999902064E-01 2.751331843E-07 1.347654320E-01
9.300000000E+00 9.999904236E-01 2.640382632E-07 1.333163414E-01
9.400000000E+00 9.999906336E-01 2.534591823E-07 1.318980824E-01
9.500000000E+00 9.999908369E-01 2.433675553E-07 1.305096815E-01
9.600000000E+00 9.999910336E-01 2.337368141E-07 1.291502057E-01
9.700000000E+00 9.999912240E-01 2.245420761E-07 1.278187603E-01
9.800000000E+00 9.999914048E-01 2.182097753E-07 1.265144872E-01
9.900000000E+00 9.999915776E-01 2.138237611E-07 1.252365631E-01
1.000000000E+01 9.999917452E-01 2.095686682E-07 1.239841975E-01
1.010000000E+01 9.999919078E-01 2.054393375E-07 1.227566311E-01
1.020000000E+01 9.999921067E-01 1.856221818E-07 1.215531348E-01
1.030000000E+01 9.999922675E-01 1.788356687E-07 1.203730072E-01
1.040000000E+01 9.999924235E-01 1.723349519E-07 1.192155745E-01
1.050000000E+01 9.999925748E-01 1.661057793E-07 1.180801881E-01
1.060000000E+01 9.999927216E-01 1.601347272E-07 1.169662240E-01
1.070000000E+01 9.999928580E-01 1.567745854E-07 1.158730817E-01
1.080000000E+01 9.999929897E-01 1.538847932E-07 1.148001828E-01
1.090000000E+01 9.999931177E-01 1.510741712E-07 1.137469701E-01
1.100000000E+01 9.999932846E-01 1.391027376E-07 1.127129068E-01
1.110000000E+01 9.999934154E-01 1.343619082E-07 1.116974752E-01
1.120000000E+01 9.999935423E-01 1.298068498E-07 1.107001763E-01
1.130000000E+01 9.999936617E-01 1.263153942E-07 1.097205287E-01
1.140000000E+01 9.999937724E-01 1.241090542E-07 1.087580679E-01
1.150000000E+01 9.999939167E-01 1.173694770E-07 1.078123456E-01
1.160000000E+01 9.999940354E-01 1.135499146E-07 1.068829288E-01
1.170000000E+01 9.999941500E-01 1.099791321E-07 1.059693995E-01
1.180000000E+01 9.999942487E-01 1.081229775E-07 1.050713538E-01
1.190000000E+01 9.999943900E-01 1.029933348E-07 1.041884012E-01
1.200000000E+01 9.999945040E-01 9.974019933E-08 1.033201645E-01
1.210000000E+01 9.999945999E-01 9.769868407E-08 1.024662789E-01
1.220000000E+01 9.999947478E-01 9.365871277E-08 1.016263914E-01
1.230000000E+01 9.999948804E-01 9.178000636E-08 1.008001605E-01
1.240000000E+01 9.999950347E-01 9.826407368E-08 9.998725601E-02
1.250000000E+01 9.999952201E-01 1.534536643E-07 9.918735797E-02
1.260000000E+01 9.999953668E-01 3.000934163E-07 9.840015671E-02
1.270000000E+01 9.999953962E-01 4.638349335E-07 9.762535233E-02
1.280000000E+01 9.999953900E-01 5.270454815E-07 9.686265426E-02
1.290000000E+01 9.999953674E-01 5.470904342E-07 9.611178098E-02
1.300000000E+01 9.999953694E-01 5.381128864E-07 9.537245958E-02
1.310000000E+01 9.999953784E-01 5.219840992E-07 9.464442554E-02
1.320000000E+01 9.999954430E-01 5.134449246E-07 9.392742232E-02
1.330000000E+01 9.999954573E-01 4.946940409E-07 9.322120110E-02
1.340000000E+01 9.999955230E-01 4.869411272E-07 9.252552049E-02
1.350000000E+01 9.999955508E-01 4.691084095E-07 9.184014627E-02
1.360000000E+01 9.999955992E-01 4.575810097E-07 9.116485107E-02
1.370000000E+01 9.999956632E-01 4.509253746E-07 9.049941420E-02
1.380000000E+01 9.999956977E-01 4.334899474E-07 8.984362135E-02
1.390000000E+01 9.999957466E-01 4.223229969E-07 8.919726436E-02
1.400000000E+01 9.999958017E-01 4.142254995E-07 8.856014104E-02
1.410000000E+01 9.999958611E-01 4.083707957E-07 8.793205493E-02
1.420000000E+01 9.999958959E-01 3.910486800E-07 8.731281511E-02
1.430000000E+01 9.999959444E-01 3.812595245E-07 8.670223598E-02
1.440000000E+01 9.999959975E-01 3.744405178E-07 8.610013712E-02
1.450000000E+01 9.999960525E-01 3.692936303E-07 8.550634307E-02
1.460000000E+01 9.999960895E-01 3.539063828E-07 8.492068319E-02
1.470000000E+01 9.999961364E-01 3.453321072E-07 8.434299147E-02
1.480000000E+01 9.999961824E-01 3.370068059E-07 8.377310639E-02
1.490000000E+01 9.999962311E-01 3.310189194E-07 8.321087078E-02
1.500000000E+01 9.999962812E-01 3.266200458E-07 8.265613164E-02
1.510000000E+01 9.999963183E-01 3.136663165E-07 8.210874004E-02
1.520000000E+01 9.999963622E-01 3.063350134E-07 8.156855096E-02
1.530000000E+01 9.999964053E-01 2.992094664E-07 8.103542318E-02
1.540000000E+01 9.999964510E-01 2.947524413E-07 8.050921913E-02
1.550000000E+01 9.999964966E-01 2.909614525E-07 7.998980481E-02
1.560000000E+01 9.999965316E-01 2.787802035E-07 7.947704965E-02
1.570000000E+01 9.999965723E-01 2.723386612E-07 7.897082641E-02
1.580000000E+01 9.999966144E-01 2.678760338E-07 7.847101105E-02
1.590000000E+01 9.999966568E-01 2.645171198E-07 7.797748268E-02
1.600000000E+01 9.999966914E-01 2.541490510E-07 7.749012341E-02
1.610000000E+01 9.999967298E-01 2.484146244E-07 7.700881830E-02
1.620000000E+01 9.999967699E-01 2.452139381E-07 7.653345522E-02
1.630000000E+01 9.999968094E-01 2.422144075E-07 7.606392482E-02
1.640000000E+01 9.999968419E-01 2.322147111E-07 7.560012040E-02
1.650000000E+01 9.999968780E-01 2.270973471E-07 7.514193785E-02
1.660000000E+01 9.999969153E-01 2.241821284E-07 7.468927558E-02
1.670000000E+01 9.999969522E-01 2.215053509E-07 7.424203441E-02
1.680000000E+01 9.999969833E-01 2.126431894E-07 7.380011753E-02
1.690000000E+01 9.999970172E-01 2.080717986E-07 7.336343045E-02
1.700000000E+01 9.999970516E-01 2.049360719E-07 7.293188086E-02
1.710000000E+01 9.999970860E-01 2.025461673E-07 7.250537863E-02
1.720000000E+01 9.999971160E-01 1.950472748E-07 7.208383573E-02
1.730000000E+01 9.999971479E-01 1.909227508E-07 7.166716616E-02
1.740000000E+01 9.999971796E-01 1.874345750E-07 7.125528590E-02
1.750000000E+01 9.999972118E-01 1.852985859E-07 7.084811283E-02
1.760000000E+01 9.999972408E-01 1.792377634E-07 7.044556674E-02
1.770000000E+01 9.999972708E-01 1.755412962E-07 7.004756919E-02
1.780000000E+01 9.999973005E-01 1.723038586E-07 6.965404352E-02
1.790000000E+01 9.999973306E-01 1.703840534E-07 6.926491478E-02
1.800000000E+01 9.999973581E-01 1.650634041E-07 6.888010970E-02
1.810000000E+01 9.999973864E-01 1.617465836E-07 6.849955661E-02
1.820000000E+01 9.999974141E-01 1.584857481E-07 6.812318542E-02
1.830000000E+01 9.999974417E-01 1.558526989E-07 6.775092757E-02
1.840000000E+01 9.999974695E-01 1.541632512E-07 6.738271601E-02
1.850000000E+01 9.999974950E-01 1.492275956E-07 6.701848511E-02
1.860000000E+01 9.999975212E-01 1.462929548E-07 6.665817068E-02
1.870000000E+01 9.999975469E-01 1.434265034E-07 6.630170987E-02
1.880000000E+01 9.999975728E-01 1.416129182E-07 6.594904120E-02
1.890000000E+01 9.999975984E-01 1.401183332E-07 6.560010448E-02
1.900000000E+01 9.999976220E-01 1.352956967E-07 6.525484077E-02
1.910000000E+01 9.999976462E-01 1.327101498E-07 6.491319239E-02
1.920000000E+01 9.999976703E-01 1.306025416E-07 6.457510284E-02
1.930000000E+01 9.999976944E-01 1.292526536E-07 6.424051682E-02
1.940000000E+01 9.999977181E-01 1.279235863E-07 6.390938013E-02
1.950000000E+01 9.999977398E-01 1.229467864E-07 6.358163972E-02
1.960000000E+01 9.999977623E-01 1.206409520E-07 6.325724360E-02
1.970000000E+01 9.999977848E-01 1.188996571E-07 6.293614084E-02
1.980000000E+01 9.999978071E-01 1.177016833E-07 6.261828154E-02
1.990000000E+01 9.999978291E-01 1.165217240E-07 6.230361681E-02
2.000000000E+01 9.999978494E-01 1.119133443E-07 6.199209873E-02
2.010000000E+01 9.999978703E-01 1.098490944E-07 6.168368033E-02
2.020000000E+01 9.999978910E-01 1.078817310E-07 6.137831557E-02
2.030000000E+01 9.999979117E-01 1.068214747E-07 6.107595934E-02
2.040000000E+01 9.999979321E-01 1.057767722E-07 6.077656738E-02
2.050000000E+01 9.999979523E-01 1.047473207E-07 6.048009632E-02
2.060000000E+01 9.999979721E-01 1.037328248E-07 6.018650362E-02
2.070000000E+01 9.999979902E-01 9.844864363E-08 5.989574756E-02
2.080000000E+01 9.999980092E-01 9.668950813E-08 5.960778724E-02
2.090000000E+01 9.999980280E-01 9.496717472E-08 5.932258252E-02
2.100000000E+01 9.999980464E-01 9.328072450E-08 5.904009403E-02
2.110000000E+01 9.999980648E-01 9.216542694E-08 5.876028316E-02
2.120000000E+01 9.999980830E-01 9.129799246E-08 5.848311201E-02
2.130000000E+01 9.999981010E-01 9.044274666E-08 5.820854341E-02
2.140000000E+01 9.999981187E-01 8.959946225E-08 5.793654087E-02
2.150000000E+01 9.999981362E-01 8.876791721E-08 5.766706859E-02
2.160000000E+01 9.999981534E-01 8.794789465E-08 5.740009142E-02
2.170000000E+01 9.999981692E-01 8.257514789E-08 5.713557487E-02
2.180000000E+01 9.999981858E-01 8.116797909E-08 5.687348507E-02
2.190000000E+01 9.999982022E-01 7.978890398E-08 5.661378879E-02
2.200000000E+01 9.999982183E-01 7.843725289E-08 5.635645339E-02
2.210000000E+01 9.999982343E-01 7.711237489E-08 5.610144681E-02
2.220000000E+01 9.999982500E-01 7.581363715E-08 5.584873759E-02
2.230000000E+01 9.999982655E-01 7.454042438E-08 5.559829482E-02
2.240000000E+01 9.999982809E-01 7.354997631E-08 5.535008815E-02
2.250000000E+01 9.999982961E-01 7.289765158E-08 5.510408776E-02
2.260000000E+01 9.999983111E-01 7.225396686E-08 5.486026436E-02
2.270000000E+01 9.999983260E-01 7.161877023E-08 5.461858919E-02
2.280000000E+01 9.999983406E-01 7.099191311E-08 5.437903397E-02
2.290000000E+01 9.999983551E-01 7.037325015E-08 5.414157094E-02
2.300000000E+01 9.999983694E-01 6.976263916E-08 5.390617281E-02
2.310000000E+01 9.999983828E-01 6.536579153E-08 5.367281275E-02
2.320000000E+01 9.999983966E-01 6.431648533E-08 5.344146442E-02
2.330000000E+01 9.999984102E-01 6.328689088E-08 5.321210191E-02
2.340000000E+01 9.999984237E-01 6.227656614E-08 5.298469977E-02
2.350000000E+01 9.999984370E-01 6.128508068E-08 5.275923296E-02
2.360000000E+01 9.999984502E-01 6.031201534E-08 5.253567689E-02
2.370000000E+01 9.999984631E-01 5.935696188E-08 5.231400737E-02
2.380000000E+01 9.999984759E-01 5.841952269E-08 5.209420061E-02
2.390000000E+01 9.999984887E-01 5.789345873E-08 5.187623325E-02
2.400000000E+01 9.999985012E-01 5.741201833E-08 5.166008227E-02
2.410000000E+01 9.999985136E-01 5.693655853E-08 5.144572509E-02
2.420000000E+01 9.999985259E-01 5.646698067E-08 5.123313945E-02
2.430000000E+01 9.999985380E-01 5.600318813E-08 5.102230348E-02
2.440000000E+01 9.999985500E-01 5.554508626E-08 5.081319568E-02
2.450000000E+01 9.999985618E-01 5.509258235E-08 5.060579488E-02
2.460000000E+01 9.999985734E-01 5.464558556E-08 5.040008027E-02
2.470000000E+01 9.999985850E-01 5.420400688E-08 5.019603136E-02
2.480000000E+01 9.999985960E-01 5.008130134E-08 4.999362801E-02
2.490000000E+01 9.999986072E-01 4.932707809E-08 4.979285038E-02
2.500000000E+01 9.999986183E-01 4.858609532E-08 4.959367898E-02
2.510000000E+01 9.999986292E-01 4.785807578E-08 4.939609460E-02
2.520000000E+01 9.999986400E-01 4.714274904E-08 4.920007836E-02
2.530000000E+01 9.999986507E-01 4.643985128E-08 4.900561164E-02
2.540000000E+01 9.999986613E-01 4.574912509E-08 4.881267616E-02
2.550000000E+01 9.999986718E-01 4.507031932E-08 4.862125391E-02
2.560000000E+01 9.999986821E-01 4.440318891E-08 4.843132713E-02
2.570000000E+01 9.999986923E-01 4.374749467E-08 4.824287839E-02
2.580000000E+01 9.999987024E-01 4.310430350E-08 4.805589049E-02
2.590000000E+01 9.999987124E-01 4.277209430E-08 4.787034651E-02
2.600000000E+01 9.999987223E-01 4.244371092E-08 4.768622979E-02
2.610000000E+01 9.999987320E-01 4.211909482E-08 4.750352393E-02
2.620000000E+01 9.999987417E-01 4.179818860E-08 4.732221277E-02
2.630000000E+01 9.999987512E-01 4.148093594E-08 4.714228040E-02
2.640000000E+01 9.999987607E-01 4.116728159E-08 4.696371116E-02
2.650000000E+01 9.999987700E-01 4.085717135E-08 4.678648961E-02
2.660000000E+01 9.999987792E-01 4.055055201E-08 4.661060055E-02
2.670000000E+01 9.999987884E-01 4.024737137E-08 4.643602901E-02
2.680000000E+01 9.999987974E-01 3.994757822E-08 4.626276025E-02
2.690000000E+01 9.999988063E-01 3.965112226E-08 4.609077972E-02
2.700000000E+01 9.999988152E-01 3.935795416E-08 4.592007313E-02
2.710000000E+01 9.999988239E-01 3.906802546E-08 4.575062637E-02
2.720000000E+01 9.999988325E-01 3.533574286E-08 4.558242554E-02
2.730000000E+01 9.999988410E-01 3.484653417E-08 4.541545694E-02
2.740000000E+01 9.999988495E-01 3.436518534E-08 4.524970710E-02
2.750000000E+01 9.999988578E-01 3.389154589E-08 4.508516271E-02
2.760000000E+01 9.999988661E-01 3.342546873E-08 4.492181067E-02
2.770000000E+01 9.999988743E-01 3.296681004E-08 4.475963807E-02
2.780000000E+01 9.999988824E-01 3.251542921E-08 4.459863218E-02
2.790000000E+01 9.999988904E-01 3.207118877E-08 4.443878045E-02
2.800000000E+01 9.999988983E-01 3.163395427E-08 4.428007052E-02
2.810000000E+01 9.999989061E-01 3.120359423E-08 4.412249020E-02
2.820000000E+01 9.999989138E-01 3.077998008E-08 4.396602747E-02
2.830000000E+01 9.999989215E-01 3.036298604E-08 4.381067048E-02
2.840000000E+01 9.999989291E-01 2.995248908E-08 4.365640756E-02
2.850000000E+01 9.999989366E-01 2.954836887E-08 4.350322718E-02
2.860000000E+01 9.999989440E-01 2.915050767E-08 4.335111799E-02
2.870000000E+01 9.999989514E-01 2.886335273E-08 4.320006880E-02
2.880000000E+01 9.999989586E-01 2.866326077E-08 4.305006856E-02
2.890000000E+01 9.999989658E-01 2.846524229E-08 4.290110639E-02
2.900000000E+01 9.999989729E-01 2.826926874E-08 4.275317154E-02
2.910000000E+01 9.999989800E-01 2.807531206E-08 4.260625342E-02
2.920000000E+01 9.999989870E-01 2.788334468E-08 4.246034160E-02
2.930000000E+01 9.999989939E-01 2.769333948E-08 4.231542575E-02
2.940000000E+01 9.999990007E-01 2.750526981E-08 4.217149573E-02
2.950000000E+01 9.999990075E-01 2.731910946E-08 4.202854151E-02
2.960000000E+01 9.999990142E-01 2.713483269E-08 4.188655320E-02
2.970000000E+01 9.999990208E-01 2.695241416E-08 4.174552103E-02
2.980000000E+01 9.999990273E-01 2.677182898E-08 4.160543539E-02
2.990000000E+01 9.999990338E-01 2.659305266E-08 4.146628678E-02
3.000000000E+01 9.999990403E-01 2.641606112E-08 4.132806582E-02
3.010000000E+01 9.999990466E-01 2.624083069E-08 4.119076328E-02
3.020000000E+01 9.999990529E-01 2.606733807E-08 4.105437002E-02
3.030000000E+01 9.999990592E-01 2.589556036E-08 4.091887705E-02
3.040000000E+01 9.999990654E-01 2.572547504E-08 4.078427548E-02
3.050000000E+01 9.999990715E-01 2.555705994E-08 4.065055654E-02
3.060000000E+01 9.999990778E-01 2.259092144E-08 4.051771159E-02
3.070000000E+01 9.999990838E-01 2.231128370E-08 4.038573207E-02
3.080000000E+01 9.999990898E-01 2.203565158E-08 4.025460956E-02
3.090000000E+01 9.999990957E-01 2.176395674E-08 4.012433575E-02
3.100000000E+01 9.999991015E-01 2.149613221E-08 3.999490241E-02
3.110000000E+01 9.999991073E-01 2.123211235E-08 3.986630143E-02
3.120000000E+01 9.999991130E-01 2.097183282E-08 3.973852483E-02
3.130000000E+01 9.999991187E-01 2.071523057E-08 3.961156468E-02
3.140000000E+01 9.999991243E-01 2.046224379E-08 3.948541320E-02
3.150000000E+01 9.999991299E-01 2.021281188E-08 3.936006269E-02
3.160000000E+01 9.999991354E-01 1.996687543E-08 3.923550552E-02
3.170000000E+01 9.999991408E-01 1.972437620E-08 3.911173421E-02
