# 04/03/2022 
# Density retrieved from www.chemicool.com/densities.html 
# Includes the real (n) and complex (k) part of the  refractive index. 
# Element, Si  (Z = 14) 
# Nominal density, g cm-3 =  2.33 
#    E [keV]      n       k    Wavelength [nm] 
1.000000000E+00 9.995551085E-01 3.945726318E-05 1.239841975E+00
1.100000000E+00 9.996370326E-01 2.616791821E-05 1.127129068E+00
1.200000000E+00 9.996989423E-01 1.856324377E-05 1.033201645E+00
1.300000000E+00 9.997441554E-01 1.522722931E-05 9.537245958E-01
1.400000000E+00 9.997847267E-01 1.053257251E-05 8.856014104E-01
1.500000000E+00 9.998163642E-01 8.174782023E-06 8.265613164E-01
1.600000000E+00 9.998432570E-01 6.435630166E-06 7.749012341E-01
1.700000000E+00 9.998669410E-01 5.166802331E-06 7.293188086E-01
1.800000000E+00 9.999007730E-01 5.254881785E-06 6.888010970E-01
1.900000000E+00 9.998968621E-01 3.776341931E-05 6.525484077E-01
2.000000000E+00 9.998962100E-01 3.187252539E-05 6.199209873E-01
2.100000000E+00 9.999017802E-01 2.725507027E-05 5.904009403E-01
2.200000000E+00 9.999068651E-01 2.270180929E-05 5.635645339E-01
2.300000000E+00 9.999129344E-01 1.936302198E-05 5.390617281E-01
2.400000000E+00 9.999190142E-01 1.685173801E-05 5.166008227E-01
2.500000000E+00 9.999243321E-01 1.443598934E-05 4.959367898E-01
2.600000000E+00 9.999293548E-01 1.250668976E-05 4.768622979E-01
2.700000000E+00 9.999340756E-01 1.102248302E-05 4.592007313E-01
2.800000000E+00 9.999382818E-01 9.596376272E-06 4.428007052E-01
2.900000000E+00 9.999421857E-01 8.456025896E-06 4.275317154E-01
3.000000000E+00 9.999457732E-01 7.494423832E-06 4.132806582E-01
3.100000000E+00 9.999490462E-01 6.640740393E-06 3.999490241E-01
3.200000000E+00 9.999520614E-01 5.912362338E-06 3.874506171E-01
3.300000000E+00 9.999548748E-01 5.429286554E-06 3.757096893E-01
3.400000000E+00 9.999573762E-01 4.731773802E-06 3.646594043E-01
3.500000000E+00 9.999597469E-01 4.364032175E-06 3.542405642E-01
3.600000000E+00 9.999619521E-01 4.124953252E-06 3.444005485E-01
3.700000000E+00 9.999638868E-01 3.468902853E-06 3.350924256E-01
3.800000000E+00 9.999657397E-01 3.183167039E-06 3.262742038E-01
3.900000000E+00 9.999674741E-01 3.022020516E-06 3.179081986E-01
4.000000000E+00 9.999690485E-01 2.596360933E-06 3.099604936E-01
4.100000000E+00 9.999705279E-01 2.365587340E-06 3.024004816E-01
4.200000000E+00 9.999719103E-01 2.215972556E-06 2.952004701E-01
4.300000000E+00 9.999732016E-01 2.114102536E-06 2.883353429E-01
4.400000000E+00 9.999744058E-01 2.019098961E-06 2.817822670E-01
4.500000000E+00 9.999755293E-01 1.671538462E-06 2.755204388E-01
4.600000000E+00 9.999765813E-01 1.537848102E-06 2.695308640E-01
4.700000000E+00 9.999775670E-01 1.416420478E-06 2.637961648E-01
4.800000000E+00 9.999784919E-01 1.352329013E-06 2.583004114E-01
4.900000000E+00 9.999793608E-01 1.297695146E-06 2.530289744E-01
5.000000000E+00 9.999801781E-01 1.246306418E-06 2.479683949E-01
5.100000000E+00 9.999809641E-01 1.041499057E-06 2.431062695E-01
5.200000000E+00 9.999816929E-01 9.668139750E-07 2.384311490E-01
5.300000000E+00 9.999823806E-01 8.982426258E-07 2.339324480E-01
5.400000000E+00 9.999830293E-01 8.445857427E-07 2.296003657E-01
5.500000000E+00 9.999836408E-01 8.141527358E-07 2.254258136E-01
5.600000000E+00 9.999842198E-01 7.853354674E-07 2.214003526E-01
5.700000000E+00 9.999847844E-01 6.814868644E-07 2.175161359E-01
5.800000000E+00 9.999853088E-01 6.375578241E-07 2.137658577E-01
5.900000000E+00 9.999858066E-01 5.968661230E-07 2.101427076E-01
6.000000000E+00 9.999862795E-01 5.591312628E-07 2.066403291E-01
6.100000000E+00 9.999867278E-01 5.304923117E-07 2.032527827E-01
6.200000000E+00 9.999871525E-01 5.135176618E-07 1.999745120E-01
6.300000000E+00 9.999875571E-01 4.973448959E-07 1.968003134E-01
6.400000000E+00 9.999879429E-01 4.819242900E-07 1.937253085E-01
6.500000000E+00 9.999883276E-01 4.114179292E-07 1.907449192E-01
6.600000000E+00 9.999886820E-01 3.877064651E-07 1.878548446E-01
6.700000000E+00 9.999890204E-01 3.655451867E-07 1.850510410E-01
6.800000000E+00 9.999893440E-01 3.448150191E-07 1.823297021E-01
6.900000000E+00 9.999896517E-01 3.311270835E-07 1.796872427E-01
7.000000000E+00 9.999899453E-01 3.217338866E-07 1.771202821E-01
7.100000000E+00 9.999902265E-01 3.127347837E-07 1.746256302E-01
7.200000000E+00 9.999904961E-01 3.041080333E-07 1.722002742E-01
7.300000000E+00 9.999907674E-01 2.624394941E-07 1.698413664E-01
7.400000000E+00 9.999910177E-01 2.488742329E-07 1.675462128E-01
7.500000000E+00 9.999912580E-01 2.361035842E-07 1.653122633E-01
7.600000000E+00 9.999914887E-01 2.240728128E-07 1.631371019E-01
7.700000000E+00 9.999917105E-01 2.127315540E-07 1.610184383E-01
7.800000000E+00 9.999919223E-01 2.055282829E-07 1.589540993E-01
7.900000000E+00 9.999921255E-01 2.003579671E-07 1.569420221E-01
8.000000000E+00 9.999923212E-01 1.953803239E-07 1.549802468E-01
8.100000000E+00 9.999925096E-01 1.905858974E-07 1.530669104E-01
8.200000000E+00 9.999927002E-01 1.667911822E-07 1.512002408E-01
8.300000000E+00 9.999928768E-01 1.590582669E-07 1.493785512E-01
8.400000000E+00 9.999930471E-01 1.517310124E-07 1.476002351E-01
8.500000000E+00 9.999932113E-01 1.447843788E-07 1.458637617E-01
8.600000000E+00 9.999933698E-01 1.381951202E-07 1.441676715E-01
8.700000000E+00 9.999935228E-01 1.319416374E-07 1.425105718E-01
8.800000000E+00 9.999936693E-01 1.286632745E-07 1.408911335E-01
8.900000000E+00 9.999938108E-01 1.257882083E-07 1.393080870E-01
9.000000000E+00 9.999939475E-01 1.230084442E-07 1.377602194E-01
9.100000000E+00 9.999940798E-01 1.203198162E-07 1.362463708E-01
9.200000000E+00 9.999942078E-01 1.177183835E-07 1.347654320E-01
9.300000000E+00 9.999943390E-01 1.017366036E-07 1.333163414E-01
9.400000000E+00 9.999944600E-01 9.751400924E-08 1.318980824E-01
9.500000000E+00 9.999945771E-01 9.348838312E-08 1.305096815E-01
9.600000000E+00 9.999946905E-01 8.964892251E-08 1.291502057E-01
9.700000000E+00 9.999948004E-01 8.598551259E-08 1.278187603E-01
9.800000000E+00 9.999949067E-01 8.296312393E-08 1.265144872E-01
9.900000000E+00 9.999950090E-01 8.129556599E-08 1.252365631E-01
1.000000000E+01 9.999951083E-01 7.967778422E-08 1.239841975E-01
1.010000000E+01 9.999952047E-01 7.810781710E-08 1.227566311E-01
1.020000000E+01 9.999952983E-01 7.658379875E-08 1.215531348E-01
1.030000000E+01 9.999953891E-01 7.510395346E-08 1.203730072E-01
1.040000000E+01 9.999954825E-01 6.542629140E-08 1.192155745E-01
1.050000000E+01 9.999955689E-01 6.298656204E-08 1.180801881E-01
1.060000000E+01 9.999956529E-01 6.064902394E-08 1.169662240E-01
1.070000000E+01 9.999957344E-01 5.840864111E-08 1.158730817E-01
1.080000000E+01 9.999958137E-01 5.626066589E-08 1.148001828E-01
1.090000000E+01 9.999958908E-01 5.420062020E-08 1.137469701E-01
1.100000000E+01 9.999959658E-01 5.222427799E-08 1.127129068E-01
1.110000000E+01 9.999960383E-01 5.107416281E-08 1.116974752E-01
1.120000000E+01 9.999961087E-01 5.016619579E-08 1.107001763E-01
1.130000000E+01 9.999961773E-01 4.928222727E-08 1.097205287E-01
1.140000000E+01 9.999962441E-01 4.842141890E-08 1.087580679E-01
1.150000000E+01 9.999963091E-01 4.758296862E-08 1.078123456E-01
1.160000000E+01 9.999963725E-01 4.676610880E-08 1.068829288E-01
1.170000000E+01 9.999964377E-01 4.094786639E-08 1.059693995E-01
1.180000000E+01 9.999964983E-01 3.957647090E-08 1.050713538E-01
1.190000000E+01 9.999965574E-01 3.825643820E-08 1.041884012E-01
1.200000000E+01 9.999966150E-01 3.698550587E-08 1.033201645E-01
1.210000000E+01 9.999966712E-01 3.576152735E-08 1.024662789E-01
1.220000000E+01 9.999967259E-01 3.458246514E-08 1.016263914E-01
1.230000000E+01 9.999967793E-01 3.350462031E-08 1.008001605E-01
1.240000000E+01 9.999968310E-01 3.296640222E-08 9.998725601E-02
1.250000000E+01 9.999968815E-01 3.244104964E-08 9.918735797E-02
1.260000000E+01 9.999969308E-01 3.192815574E-08 9.840015671E-02
1.270000000E+01 9.999969790E-01 3.142732969E-08 9.762535233E-02
1.280000000E+01 9.999970260E-01 3.093819584E-08 9.686265426E-02
1.290000000E+01 9.999970719E-01 3.046039304E-08 9.611178098E-02
1.300000000E+01 9.999971168E-01 2.999357400E-08 9.537245958E-02
1.310000000E+01 9.999971634E-01 2.608155197E-08 9.464442554E-02
1.320000000E+01 9.999972065E-01 2.529672882E-08 9.392742232E-02
1.330000000E+01 9.999972486E-01 2.453826551E-08 9.322120110E-02
1.340000000E+01 9.999972898E-01 2.380512061E-08 9.252552049E-02
1.350000000E+01 9.999973301E-01 2.309630055E-08 9.184014627E-02
1.360000000E+01 9.999973695E-01 2.241085712E-08 9.116485107E-02
1.370000000E+01 9.999974080E-01 2.174788509E-08 9.049941420E-02
1.380000000E+01 9.999974457E-01 2.110651996E-08 8.984362135E-02
1.390000000E+01 9.999974824E-01 2.073303365E-08 8.919726436E-02
1.400000000E+01 9.999975182E-01 2.043790526E-08 8.856014104E-02
1.410000000E+01 9.999975533E-01 2.014903390E-08 8.793205493E-02
1.420000000E+01 9.999975876E-01 1.986624395E-08 8.731281511E-02
1.430000000E+01 9.999976212E-01 1.958936589E-08 8.670223598E-02
1.440000000E+01 9.999976542E-01 1.931823607E-08 8.610013712E-02
1.450000000E+01 9.999976864E-01 1.905269646E-08 8.550634307E-02
1.460000000E+01 9.999977180E-01 1.879259444E-08 8.492068319E-02
1.470000000E+01 9.999977508E-01 1.641715737E-08 8.434299147E-02
1.480000000E+01 9.999977813E-01 1.597347748E-08 8.377310639E-02
1.490000000E+01 9.999978111E-01 1.554313716E-08 8.321087078E-02
1.500000000E+01 9.999978404E-01 1.512566476E-08 8.265613164E-02
1.510000000E+01 9.999978691E-01 1.472060802E-08 8.210874004E-02
1.520000000E+01 9.999978972E-01 1.432753318E-08 8.156855096E-02
1.530000000E+01 9.999979248E-01 1.394602410E-08 8.103542318E-02
1.540000000E+01 9.999979518E-01 1.357568147E-08 8.050921913E-02
1.550000000E+01 9.999979782E-01 1.326817764E-08 7.998980481E-02
1.560000000E+01 9.999980041E-01 1.309861801E-08 7.947704965E-02
1.570000000E+01 9.999980294E-01 1.293228804E-08 7.897082641E-02
1.580000000E+01 9.999980543E-01 1.276910623E-08 7.847101105E-02
1.590000000E+01 9.999980787E-01 1.260899363E-08 7.797748268E-02
1.600000000E+01 9.999981026E-01 1.245187375E-08 7.749012341E-02
1.610000000E+01 9.999981261E-01 1.229767246E-08 7.700881830E-02
1.620000000E+01 9.999981492E-01 1.214631794E-08 7.653345522E-02
1.630000000E+01 9.999981718E-01 1.199774052E-08 7.606392482E-02
1.640000000E+01 9.999981953E-01 1.055270569E-08 7.560012040E-02
1.650000000E+01 9.999982172E-01 1.029553476E-08 7.514193785E-02
1.660000000E+01 9.999982387E-01 1.004531940E-08 7.468927558E-02
1.670000000E+01 9.999982599E-01 9.801838375E-09 7.424203441E-02
1.680000000E+01 9.999982806E-01 9.564878674E-09 7.380011753E-02
1.690000000E+01 9.999983010E-01 9.334235109E-09 7.336343045E-02
1.700000000E+01 9.999983211E-01 9.109710008E-09 7.293188086E-02
1.710000000E+01 9.999983408E-01 8.891112896E-09 7.250537863E-02
1.720000000E+01 9.999983601E-01 8.678260196E-09 7.208383573E-02
1.730000000E+01 9.999983791E-01 8.490097168E-09 7.166716616E-02
1.740000000E+01 9.999983977E-01 8.392790268E-09 7.125528590E-02
1.750000000E+01 9.999984159E-01 8.297146715E-09 7.084811283E-02
1.760000000E+01 9.999984339E-01 8.203128814E-09 7.044556674E-02
1.770000000E+01 9.999984515E-01 8.110699931E-09 7.004756919E-02
1.780000000E+01 9.999984689E-01 8.019824459E-09 6.965404352E-02
1.790000000E+01 9.999984859E-01 7.930467780E-09 6.926491478E-02
1.800000000E+01 9.999985027E-01 7.842596239E-09 6.888010970E-02
1.810000000E+01 9.999985192E-01 7.756177105E-09 6.849955661E-02
1.820000000E+01 9.999985354E-01 7.671178546E-09 6.812318542E-02
1.830000000E+01 9.999985522E-01 6.764583111E-09 6.775092757E-02
1.840000000E+01 9.999985680E-01 6.616139941E-09 6.738271601E-02
1.850000000E+01 9.999985835E-01 6.471305677E-09 6.701848511E-02
1.860000000E+01 9.999985988E-01 6.329977141E-09 6.665817068E-02
1.870000000E+01 9.999986138E-01 6.192054591E-09 6.630170987E-02
1.880000000E+01 9.999986286E-01 6.057441592E-09 6.594904120E-02
1.890000000E+01 9.999986431E-01 5.926044883E-09 6.560010448E-02
1.900000000E+01 9.999986574E-01 5.797774266E-09 6.525484077E-02
1.910000000E+01 9.999986715E-01 5.672542483E-09 6.491319239E-02
1.920000000E+01 9.999986854E-01 5.550265113E-09 6.457510284E-02
1.930000000E+01 9.999986990E-01 5.473752396E-09 6.424051682E-02
1.940000000E+01 9.999987124E-01 5.417467398E-09 6.390938013E-02
1.950000000E+01 9.999987255E-01 5.362046101E-09 6.358163972E-02
1.960000000E+01 9.999987385E-01 5.307470923E-09 6.325724360E-02
1.970000000E+01 9.999987513E-01 5.253724729E-09 6.293614084E-02
1.980000000E+01 9.999987639E-01 5.200790812E-09 6.261828154E-02
1.990000000E+01 9.999987763E-01 5.148652887E-09 6.230361681E-02
2.000000000E+01 9.999987885E-01 5.097295075E-09 6.199209873E-02
2.010000000E+01 9.999988005E-01 5.046701888E-09 6.168368033E-02
2.020000000E+01 9.999988123E-01 4.996858225E-09 6.137831557E-02
2.030000000E+01 9.999988246E-01 4.435335688E-09 6.107595934E-02
2.040000000E+01 9.999988361E-01 4.347224381E-09 6.077656738E-02
2.050000000E+01 9.999988475E-01 4.261049229E-09 6.048009632E-02
2.060000000E+01 9.999988587E-01 4.176760200E-09 6.018650362E-02
2.070000000E+01 9.999988697E-01 4.094308771E-09 5.989574756E-02
2.080000000E+01 9.999988806E-01 4.013647868E-09 5.960778724E-02
2.090000000E+01 9.999988914E-01 3.934731827E-09 5.932258252E-02
2.100000000E+01 9.999989019E-01 3.857516336E-09 5.904009403E-02
2.110000000E+01 9.999989124E-01 3.781958393E-09 5.876028316E-02
2.120000000E+01 9.999989226E-01 3.708016265E-09 5.848311201E-02
2.130000000E+01 9.999989328E-01 3.635649439E-09 5.820854341E-02
2.140000000E+01 9.999989428E-01 3.564818584E-09 5.793654087E-02
2.150000000E+01 9.999989526E-01 3.502915395E-09 5.766706859E-02
2.160000000E+01 9.999989623E-01 3.470556073E-09 5.740009142E-02
2.170000000E+01 9.999989718E-01 3.438643083E-09 5.713557487E-02
2.180000000E+01 9.999989812E-01 3.407168255E-09 5.687348507E-02
2.190000000E+01 9.999989905E-01 3.376123603E-09 5.661378879E-02
2.200000000E+01 9.999989997E-01 3.345501325E-09 5.635645339E-02
2.210000000E+01 9.999990087E-01 3.315293793E-09 5.610144681E-02
2.220000000E+01 9.999990176E-01 3.285493550E-09 5.584873759E-02
2.230000000E+01 9.999990264E-01 3.256093309E-09 5.559829482E-02
2.240000000E+01 9.999990351E-01 3.227085940E-09 5.535008815E-02
2.250000000E+01 9.999990436E-01 3.198464477E-09 5.510408776E-02
2.260000000E+01 9.999990521E-01 3.170222103E-09 5.486026436E-02
2.270000000E+01 9.999990608E-01 2.808159385E-09 5.461858919E-02
2.280000000E+01 9.999990691E-01 2.758012048E-09 5.437903397E-02
2.290000000E+01 9.999990772E-01 2.708852994E-09 5.414157094E-02
2.300000000E+01 9.999990852E-01 2.660659325E-09 5.390617281E-02
2.310000000E+01 9.999990932E-01 2.613408759E-09 5.367281275E-02
2.320000000E+01 9.999991010E-01 2.567079613E-09 5.344146442E-02
2.330000000E+01 9.999991087E-01 2.521650787E-09 5.321210191E-02
2.340000000E+01 9.999991164E-01 2.477101740E-09 5.298469977E-02
2.350000000E+01 9.999991239E-01 2.433412480E-09 5.275923296E-02
2.360000000E+01 9.999991313E-01 2.390563543E-09 5.253567689E-02
2.370000000E+01 9.999991387E-01 2.348535976E-09 5.231400737E-02
2.380000000E+01 9.999991459E-01 2.307311327E-09 5.209420061E-02
2.390000000E+01 9.999991531E-01 2.266871623E-09 5.187623325E-02
2.400000000E+01 9.999991601E-01 2.247893024E-09 5.166008227E-02
2.410000000E+01 9.999991671E-01 2.229277012E-09 5.144572509E-02
2.420000000E+01 9.999991739E-01 2.210891301E-09 5.123313945E-02
2.430000000E+01 9.999991807E-01 2.192732107E-09 5.102230348E-02
2.440000000E+01 9.999991874E-01 2.174795723E-09 5.081319568E-02
2.450000000E+01 9.999991940E-01 2.157078520E-09 5.060579488E-02
2.460000000E+01 9.999992006E-01 2.139576941E-09 5.040008027E-02
2.470000000E+01 9.999992070E-01 2.122287501E-09 5.019603136E-02
2.480000000E+01 9.999992134E-01 2.105206786E-09 4.999362801E-02
2.490000000E+01 9.999992197E-01 2.088331449E-09 4.979285038E-02
2.500000000E+01 9.999992260E-01 2.071658211E-09 4.959367898E-02
2.510000000E+01 9.999992321E-01 2.055183857E-09 4.939609460E-02
2.520000000E+01 9.999992382E-01 2.038905237E-09 4.920007836E-02
2.530000000E+01 9.999992445E-01 1.800209731E-09 4.900561164E-02
2.540000000E+01 9.999992504E-01 1.771211826E-09 4.881267616E-02
2.550000000E+01 9.999992563E-01 1.742728096E-09 4.862125391E-02
2.560000000E+01 9.999992621E-01 1.714747822E-09 4.843132713E-02
2.570000000E+01 9.999992679E-01 1.687260550E-09 4.824287839E-02
2.580000000E+01 9.999992736E-01 1.660256075E-09 4.805589049E-02
2.590000000E+01 9.999992792E-01 1.633724442E-09 4.787034651E-02
2.600000000E+01 9.999992847E-01 1.607655933E-09 4.768622979E-02
2.610000000E+01 9.999992902E-01 1.582041061E-09 4.750352393E-02
2.620000000E+01 9.999992957E-01 1.556870569E-09 4.732221277E-02
2.630000000E+01 9.999993010E-01 1.532135417E-09 4.714228040E-02
2.640000000E+01 9.999993063E-01 1.507826780E-09 4.696371116E-02
2.650000000E+01 9.999993116E-01 1.483936042E-09 4.678648961E-02
2.660000000E+01 9.999993167E-01 1.460454789E-09 4.661060055E-02
2.670000000E+01 9.999993219E-01 1.437374804E-09 4.643602901E-02
2.680000000E+01 9.999993269E-01 1.424204362E-09 4.626276025E-02
2.690000000E+01 9.999993319E-01 1.413635164E-09 4.609077972E-02
2.700000000E+01 9.999993369E-01 1.403183184E-09 4.592007313E-02
2.710000000E+01 9.999993417E-01 1.392846695E-09 4.575062637E-02
2.720000000E+01 9.999993466E-01 1.382624001E-09 4.558242554E-02
2.730000000E+01 9.999993514E-01 1.372513439E-09 4.541545694E-02
2.740000000E+01 9.999993561E-01 1.362513374E-09 4.524970710E-02
2.750000000E+01 9.999993608E-01 1.352622203E-09 4.508516271E-02
2.760000000E+01 9.999993654E-01 1.342838349E-09 4.492181067E-02
2.770000000E+01 9.999993699E-01 1.333160267E-09 4.475963807E-02
2.780000000E+01 9.999993745E-01 1.323586436E-09 4.459863218E-02
2.790000000E+01 9.999993790E-01 1.314115365E-09 4.443878045E-02
2.800000000E+01 9.999993834E-01 1.304745588E-09 4.428007052E-02
2.810000000E+01 9.999993878E-01 1.295475666E-09 4.412249020E-02
2.820000000E+01 9.999993923E-01 1.151040333E-09 4.396602747E-02
2.830000000E+01 9.999993966E-01 1.134348745E-09 4.381067048E-02
2.840000000E+01 9.999994008E-01 1.117923232E-09 4.365640756E-02
2.850000000E+01 9.999994050E-01 1.101758809E-09 4.350322718E-02
2.860000000E+01 9.999994092E-01 1.085850598E-09 4.335111799E-02
2.870000000E+01 9.999994133E-01 1.070193830E-09 4.320006880E-02
2.880000000E+01 9.999994174E-01 1.054783838E-09 4.305006856E-02
2.890000000E+01 9.999994214E-01 1.039616056E-09 4.290110639E-02
2.900000000E+01 9.999994254E-01 1.024686016E-09 4.275317154E-02
2.910000000E+01 9.999994294E-01 1.009989348E-09 4.260625342E-02
2.920000000E+01 9.999994333E-01 9.955217732E-10 4.246034160E-02
2.930000000E+01 9.999994372E-01 9.812791054E-10 4.231542575E-02
2.940000000E+01 9.999994410E-01 9.672572471E-10 4.217149573E-02
2.950000000E+01 9.999994448E-01 9.534521879E-10 4.202854151E-02
2.960000000E+01 9.999994485E-01 9.398600020E-10 4.188655320E-02
2.970000000E+01 9.999994523E-01 9.264768465E-10 4.174552103E-02
2.980000000E+01 9.999994559E-01 9.152245064E-10 4.160543539E-02
2.990000000E+01 9.999994596E-01 9.091128407E-10 4.146628678E-02
3.000000000E+01 9.999994632E-01 9.030621896E-10 4.132806582E-02
3.010000000E+01 9.999994667E-01 8.970717439E-10 4.119076328E-02
3.020000000E+01 9.999994703E-01 8.911407073E-10 4.105437002E-02
3.030000000E+01 9.999994737E-01 8.852682969E-10 4.091887705E-02
3.040000000E+01 9.999994772E-01 8.794537425E-10 4.078427548E-02
3.050000000E+01 9.999994806E-01 8.736962867E-10 4.065055654E-02
3.060000000E+01 9.999994840E-01 8.679951842E-10 4.051771159E-02
3.070000000E+01 9.999994874E-01 8.623497020E-10 4.038573207E-02
3.080000000E+01 9.999994907E-01 8.567591190E-10 4.025460956E-02
3.090000000E+01 9.999994940E-01 8.512227256E-10 4.012433575E-02
3.100000000E+01 9.999994972E-01 8.457398238E-10 3.999490241E-02
3.110000000E+01 9.999995005E-01 8.403097266E-10 3.986630143E-02
3.120000000E+01 9.999995037E-01 8.349317582E-10 3.973852483E-02
3.130000000E+01 9.999995070E-01 7.479465483E-10 3.961156468E-02
3.140000000E+01 9.999995101E-01 7.381542226E-10 3.948541320E-02
3.150000000E+01 9.999995132E-01 7.285027422E-10 3.936006269E-02
3.160000000E+01 9.999995163E-01 7.189897256E-10 3.923550552E-02
3.170000000E+01 9.999995193E-01 7.096128386E-10 3.911173421E-02
