# 11/03/2022 
# Density retrieved from www.chemicool.com/densities.html 
# Includes the real (n) and complex (k) part of the  refractive index. 
# Elements, SiO  
# Nominal density, g cm-3 =  [2.13] 
#    E [keV]      n       k    Wavelength [nm] 
2.000000000E+00 9.998977952E-01 2.129107617E-05 6.199209873E-01
2.100000000E+00 9.999050010E-01 1.807169421E-05 5.904009403E-01
2.200000000E+00 9.999113688E-01 1.505642009E-05 5.635645339E-01
2.300000000E+00 9.999178309E-01 1.294873705E-05 5.390617281E-01
2.400000000E+00 9.999240195E-01 1.112683907E-05 5.166008227E-01
2.500000000E+00 9.999293982E-01 9.554646425E-06 4.959367898E-01
2.600000000E+00 9.999343252E-01 8.344477269E-06 4.768622979E-01
2.700000000E+00 9.999389256E-01 7.250275788E-06 4.592007313E-01
2.800000000E+00 9.999429861E-01 6.316906651E-06 4.428007052E-01
2.900000000E+00 9.999466877E-01 5.603425988E-06 4.275317154E-01
3.000000000E+00 9.999501087E-01 4.915135189E-06 4.132806582E-01
3.100000000E+00 9.999531941E-01 4.350608403E-06 3.999490241E-01
3.200000000E+00 9.999560085E-01 3.888282455E-06 3.874506171E-01
3.300000000E+00 9.999586063E-01 3.580382434E-06 3.757096893E-01
3.400000000E+00 9.999609738E-01 3.091722759E-06 3.646594043E-01
3.500000000E+00 9.999631652E-01 2.840529939E-06 3.542405642E-01
3.600000000E+00 9.999651838E-01 2.683909423E-06 3.444005485E-01
3.700000000E+00 9.999669855E-01 2.286812327E-06 3.350924256E-01
3.800000000E+00 9.999687116E-01 2.070154729E-06 3.262742038E-01
3.900000000E+00 9.999703027E-01 1.954784460E-06 3.179081986E-01
4.000000000E+00 9.999717527E-01 1.694214700E-06 3.099604936E-01
4.100000000E+00 9.999731068E-01 1.551037652E-06 3.024004816E-01
4.200000000E+00 9.999743847E-01 1.435768510E-06 2.952004701E-01
4.300000000E+00 9.999755671E-01 1.363277515E-06 2.883353429E-01
4.400000000E+00 9.999766695E-01 1.296100129E-06 2.817822670E-01
4.500000000E+00 9.999776941E-01 1.088340620E-06 2.755204388E-01
4.600000000E+00 9.999786532E-01 1.005540615E-06 2.695308640E-01
4.700000000E+00 9.999795623E-01 9.174545913E-07 2.637961648E-01
4.800000000E+00 9.999804081E-01 8.725662277E-07 2.583004114E-01
4.900000000E+00 9.999812025E-01 8.338665959E-07 2.530289744E-01
5.000000000E+00 9.999819476E-01 7.999825301E-07 2.479683949E-01
5.100000000E+00 9.999826581E-01 6.778237361E-07 2.431062695E-01
5.200000000E+00 9.999833208E-01 6.316128672E-07 2.384311490E-01
5.300000000E+00 9.999839543E-01 5.801909941E-07 2.339324480E-01
5.400000000E+00 9.999845463E-01 5.447463709E-07 2.296003657E-01
5.500000000E+00 9.999851049E-01 5.231656105E-07 2.254258136E-01
5.600000000E+00 9.999856324E-01 5.043907893E-07 2.214003526E-01
5.700000000E+00 9.999861413E-01 4.422741693E-07 2.175161359E-01
5.800000000E+00 9.999866175E-01 4.151386501E-07 2.137658577E-01
5.900000000E+00 9.999870749E-01 3.845822364E-07 2.101427076E-01
6.000000000E+00 9.999875056E-01 3.601440377E-07 2.066403291E-01
6.100000000E+00 9.999879142E-01 3.411828357E-07 2.032527827E-01
6.200000000E+00 9.999883016E-01 3.295730192E-07 1.999745120E-01
6.300000000E+00 9.999886701E-01 3.191934205E-07 1.968003134E-01
6.400000000E+00 9.999890214E-01 3.092965542E-07 1.937253085E-01
6.500000000E+00 9.999893662E-01 2.673595888E-07 1.907449192E-01
6.600000000E+00 9.999896917E-01 2.492408930E-07 1.878548446E-01
6.700000000E+00 9.999899997E-01 2.349292828E-07 1.850510410E-01
6.800000000E+00 9.999902941E-01 2.215433288E-07 1.823297021E-01
6.900000000E+00 9.999905746E-01 2.124035738E-07 1.796872427E-01
7.000000000E+00 9.999908420E-01 2.063782479E-07 1.771202821E-01
7.100000000E+00 9.999910982E-01 2.006057161E-07 1.746256302E-01
7.200000000E+00 9.999913437E-01 1.950720322E-07 1.722002742E-01
7.300000000E+00 9.999915889E-01 1.683770214E-07 1.698413664E-01
7.400000000E+00 9.999918166E-01 1.596307710E-07 1.675462128E-01
7.500000000E+00 9.999920352E-01 1.513977252E-07 1.653122633E-01
7.600000000E+00 9.999922451E-01 1.436425024E-07 1.631371019E-01
7.700000000E+00 9.999924469E-01 1.363594229E-07 1.610184383E-01
7.800000000E+00 9.999926397E-01 1.318466791E-07 1.589540993E-01
7.900000000E+00 9.999928248E-01 1.285299143E-07 1.569420221E-01
8.000000000E+00 9.999930031E-01 1.253367493E-07 1.549802468E-01
8.100000000E+00 9.999931748E-01 1.222611180E-07 1.530669104E-01
8.200000000E+00 9.999933472E-01 1.067844360E-07 1.512002408E-01
8.300000000E+00 9.999935078E-01 1.018098913E-07 1.493785512E-01
8.400000000E+00 9.999936628E-01 9.709673590E-08 1.476002351E-01
8.500000000E+00 9.999938122E-01 9.262882179E-08 1.458637617E-01
8.600000000E+00 9.999939563E-01 8.844053765E-08 1.441676715E-01
8.700000000E+00 9.999940953E-01 8.461666507E-08 1.425105718E-01
8.800000000E+00 9.999942288E-01 8.253167132E-08 1.408911335E-01
8.900000000E+00 9.999943578E-01 8.068744637E-08 1.393080870E-01
9.000000000E+00 9.999944825E-01 7.890435342E-08 1.377602194E-01
9.100000000E+00 9.999946042E-01 7.635495747E-08 1.362463708E-01
9.200000000E+00 9.999947210E-01 7.456052406E-08 1.347654320E-01
9.300000000E+00 9.999948384E-01 6.498687168E-08 1.333163414E-01
9.400000000E+00 9.999949484E-01 6.227454712E-08 1.318980824E-01
9.500000000E+00 9.999950550E-01 5.971177955E-08 1.305096815E-01
9.600000000E+00 9.999951581E-01 5.736657572E-08 1.291502057E-01
9.700000000E+00 9.999952580E-01 5.512726078E-08 1.278187603E-01
9.800000000E+00 9.999953547E-01 5.326449814E-08 1.265144872E-01
9.900000000E+00 9.999954480E-01 5.219388227E-08 1.252365631E-01
1.000000000E+01 9.999955393E-01 5.066034899E-08 1.239841975E-01
1.010000000E+01 9.999956273E-01 4.957425635E-08 1.227566311E-01
1.020000000E+01 9.999957128E-01 4.852249774E-08 1.215531348E-01
1.030000000E+01 9.999957957E-01 4.750364883E-08 1.203730072E-01
1.040000000E+01 9.999958793E-01 4.171719282E-08 1.192155745E-01
1.050000000E+01 9.999959579E-01 4.015259323E-08 1.180801881E-01
1.060000000E+01 9.999960343E-01 3.868176159E-08 1.169662240E-01
1.070000000E+01 9.999961085E-01 3.731445461E-08 1.158730817E-01
1.080000000E+01 9.999961806E-01 3.600269417E-08 1.148001828E-01
1.090000000E+01 9.999962508E-01 3.474380908E-08 1.137469701E-01
1.100000000E+01 9.999963190E-01 3.353527782E-08 1.127129068E-01
1.110000000E+01 9.999963851E-01 3.280948991E-08 1.116974752E-01
1.120000000E+01 9.999964499E-01 3.187715713E-08 1.107001763E-01
1.130000000E+01 9.999965125E-01 3.126530505E-08 1.097205287E-01
1.140000000E+01 9.999965735E-01 3.067078609E-08 1.087580679E-01
1.150000000E+01 9.999966329E-01 3.009295528E-08 1.078123456E-01
1.160000000E+01 9.999966908E-01 2.953119721E-08 1.068829288E-01
1.170000000E+01 9.999967492E-01 2.605996385E-08 1.059693995E-01
1.180000000E+01 9.999968044E-01 2.520588350E-08 1.050713538E-01
1.190000000E+01 9.999968581E-01 2.440100306E-08 1.041884012E-01
1.200000000E+01 9.999969105E-01 2.362561727E-08 1.033201645E-01
1.210000000E+01 9.999969617E-01 2.287844640E-08 1.024662789E-01
1.220000000E+01 9.999970115E-01 2.215827542E-08 1.016263914E-01
1.230000000E+01 9.999970601E-01 2.149786696E-08 1.008001605E-01
1.240000000E+01 9.999971077E-01 2.094107548E-08 9.998725601E-02
1.250000000E+01 9.999971538E-01 2.057762449E-08 9.918735797E-02
1.260000000E+01 9.999971989E-01 2.022349227E-08 9.840015671E-02
1.270000000E+01 9.999972428E-01 1.987836469E-08 9.762535233E-02
1.280000000E+01 9.999972858E-01 1.954194070E-08 9.686265426E-02
1.290000000E+01 9.999973278E-01 1.921393167E-08 9.611178098E-02
1.300000000E+01 9.999973687E-01 1.889677604E-08 9.537245958E-02
1.310000000E+01 9.999974103E-01 1.659668189E-08 9.464442554E-02
1.320000000E+01 9.999974496E-01 1.611836597E-08 9.392742232E-02
1.330000000E+01 9.999974880E-01 1.565587922E-08 9.322120110E-02
1.340000000E+01 9.999975255E-01 1.520860091E-08 9.252552049E-02
1.350000000E+01 9.999975622E-01 1.477593873E-08 9.184014627E-02
1.360000000E+01 9.999975981E-01 1.435732727E-08 9.116485107E-02
1.370000000E+01 9.999976334E-01 1.381545270E-08 9.049941420E-02
1.380000000E+01 9.999976677E-01 1.340747100E-08 8.984362135E-02
1.390000000E+01 9.999977012E-01 1.315662439E-08 8.919726436E-02
1.400000000E+01 9.999977340E-01 1.295249283E-08 8.856014104E-02
1.410000000E+01 9.999977660E-01 1.275304380E-08 8.793205493E-02
1.420000000E+01 9.999977974E-01 1.255813599E-08 8.731281511E-02
1.430000000E+01 9.999978281E-01 1.236763334E-08 8.670223598E-02
1.440000000E+01 9.999978582E-01 1.218140481E-08 8.610013712E-02
1.450000000E+01 9.999978877E-01 1.200327329E-08 8.550634307E-02
1.460000000E+01 9.999979165E-01 1.183940800E-08 8.492068319E-02
1.470000000E+01 9.999979458E-01 1.044381953E-08 8.434299147E-02
1.480000000E+01 9.999979736E-01 1.017353501E-08 8.377310639E-02
1.490000000E+01 9.999980008E-01 9.911257970E-09 8.321087078E-02
1.500000000E+01 9.999980275E-01 9.656707367E-09 8.265613164E-02
1.510000000E+01 9.999980536E-01 9.409613683E-09 8.210874004E-02
1.520000000E+01 9.999980793E-01 9.169718365E-09 8.156855096E-02
1.530000000E+01 9.999981045E-01 8.845864709E-09 8.103542318E-02
1.540000000E+01 9.999981292E-01 8.610612906E-09 8.050921913E-02
1.550000000E+01 9.999981533E-01 8.412531403E-09 7.998980481E-02
1.560000000E+01 9.999981770E-01 8.295342102E-09 7.947704965E-02
1.570000000E+01 9.999982001E-01 8.180568194E-09 7.897082641E-02
1.580000000E+01 9.999982229E-01 8.068144126E-09 7.847101105E-02
1.590000000E+01 9.999982452E-01 7.958006547E-09 7.797748268E-02
1.600000000E+01 9.999982670E-01 7.850094215E-09 7.749012341E-02
1.610000000E+01 9.999982885E-01 7.744347915E-09 7.700881830E-02
1.620000000E+01 9.999983096E-01 7.648770412E-09 7.653345522E-02
1.630000000E+01 9.999983303E-01 7.555208351E-09 7.606392482E-02
1.640000000E+01 9.999983513E-01 6.706715335E-09 7.560012040E-02
1.650000000E+01 9.999983713E-01 6.550161535E-09 7.514193785E-02
1.660000000E+01 9.999983909E-01 6.397780774E-09 7.468927558E-02
1.670000000E+01 9.999984102E-01 6.249441299E-09 7.424203441E-02
1.680000000E+01 9.999984291E-01 6.105016214E-09 7.380011753E-02
1.690000000E+01 9.999984477E-01 5.964383273E-09 7.336343045E-02
1.700000000E+01 9.999984661E-01 5.770525626E-09 7.293188086E-02
1.710000000E+01 9.999984840E-01 5.631886640E-09 7.250537863E-02
1.720000000E+01 9.999985017E-01 5.496892306E-09 7.208383573E-02
1.730000000E+01 9.999985190E-01 5.376567140E-09 7.166716616E-02
1.740000000E+01 9.999985360E-01 5.309437703E-09 7.125528590E-02
1.750000000E+01 9.999985527E-01 5.243549372E-09 7.084811283E-02
1.760000000E+01 9.999985691E-01 5.178871909E-09 7.044556674E-02
1.770000000E+01 9.999985852E-01 5.115375990E-09 7.004756919E-02
1.780000000E+01 9.999986011E-01 5.053033168E-09 6.965404352E-02
1.790000000E+01 9.999986167E-01 4.991815842E-09 6.926491478E-02
1.800000000E+01 9.999986320E-01 4.931725472E-09 6.888010970E-02
1.810000000E+01 9.999986471E-01 4.877381804E-09 6.849955661E-02
1.820000000E+01 9.999986619E-01 4.823931448E-09 6.812318542E-02
1.830000000E+01 9.999986770E-01 4.292046099E-09 6.775092757E-02
1.840000000E+01 9.999986914E-01 4.201773145E-09 6.738271601E-02
1.850000000E+01 9.999987055E-01 4.113663791E-09 6.701848511E-02
1.860000000E+01 9.999987195E-01 4.027656624E-09 6.665817068E-02
1.870000000E+01 9.999987332E-01 3.943692264E-09 6.630170987E-02
1.880000000E+01 9.999987466E-01 3.861713291E-09 6.594904120E-02
1.890000000E+01 9.999987599E-01 3.781664168E-09 6.560010448E-02
1.900000000E+01 9.999987730E-01 3.667557387E-09 6.525484077E-02
1.910000000E+01 9.999987859E-01 3.588234853E-09 6.491319239E-02
1.920000000E+01 9.999987986E-01 3.510784436E-09 6.457510284E-02
1.930000000E+01 9.999988110E-01 3.460134700E-09 6.424051682E-02
1.940000000E+01 9.999988232E-01 3.421408823E-09 6.390938013E-02
1.950000000E+01 9.999988353E-01 3.383325234E-09 6.358163972E-02
1.960000000E+01 9.999988471E-01 3.345869885E-09 6.325724360E-02
1.970000000E+01 9.999988588E-01 3.309029109E-09 6.293614084E-02
1.980000000E+01 9.999988703E-01 3.272789607E-09 6.261828154E-02
1.990000000E+01 9.999988817E-01 3.237138436E-09 6.230361681E-02
2.000000000E+01 9.999988928E-01 3.202062997E-09 6.199209873E-02
2.010000000E+01 9.999989038E-01 3.170070379E-09 6.168368033E-02
2.020000000E+01 9.999989146E-01 3.138761234E-09 6.137831557E-02
2.030000000E+01 9.999989256E-01 2.809482991E-09 6.107595934E-02
2.040000000E+01 9.999989362E-01 2.755953269E-09 6.077656738E-02
2.050000000E+01 9.999989465E-01 2.703583482E-09 6.048009632E-02
2.060000000E+01 9.999989568E-01 2.652343864E-09 6.018650362E-02
2.070000000E+01 9.999989669E-01 2.602205545E-09 5.989574756E-02
2.080000000E+01 9.999989768E-01 2.553140513E-09 5.960778724E-02
2.090000000E+01 9.999989866E-01 2.505121591E-09 5.932258252E-02
2.100000000E+01 9.999989962E-01 2.458122403E-09 5.904009403E-02
2.110000000E+01 9.999990058E-01 2.389383357E-09 5.876028316E-02
2.120000000E+01 9.999990152E-01 2.342615846E-09 5.848311201E-02
2.130000000E+01 9.999990244E-01 2.296845044E-09 5.820854341E-02
2.140000000E+01 9.999990336E-01 2.252046063E-09 5.793654087E-02
2.150000000E+01 9.999990426E-01 2.212521913E-09 5.766706859E-02
2.160000000E+01 9.999990514E-01 2.190277639E-09 5.740009142E-02
2.170000000E+01 9.999990601E-01 2.168364968E-09 5.713557487E-02
2.180000000E+01 9.999990687E-01 2.146777377E-09 5.687348507E-02
2.190000000E+01 9.999990772E-01 2.125508502E-09 5.661378879E-02
2.200000000E+01 9.999990856E-01 2.104552136E-09 5.635645339E-02
2.210000000E+01 9.999990939E-01 2.083902218E-09 5.610144681E-02
2.220000000E+01 9.999991020E-01 2.064867802E-09 5.584873759E-02
2.230000000E+01 9.999991100E-01 2.046390331E-09 5.559829482E-02
2.240000000E+01 9.999991180E-01 2.028159773E-09 5.535008815E-02
2.250000000E+01 9.999991258E-01 2.010171748E-09 5.510408776E-02
2.260000000E+01 9.999991335E-01 1.992421974E-09 5.486026436E-02
2.270000000E+01 9.999991414E-01 1.780271783E-09 5.461858919E-02
2.280000000E+01 9.999991489E-01 1.749798539E-09 5.437903397E-02
2.290000000E+01 9.999991563E-01 1.719917439E-09 5.414157094E-02
2.300000000E+01 9.999991637E-01 1.690614861E-09 5.390617281E-02
2.310000000E+01 9.999991709E-01 1.661877545E-09 5.367281275E-02
2.320000000E+01 9.999991781E-01 1.619960799E-09 5.344146442E-02
2.330000000E+01 9.999991851E-01 1.591238097E-09 5.321210191E-02
2.340000000E+01 9.999991921E-01 1.563071979E-09 5.298469977E-02
2.350000000E+01 9.999991990E-01 1.535449794E-09 5.275923296E-02
2.360000000E+01 9.999992058E-01 1.508359224E-09 5.253567689E-02
2.370000000E+01 9.999992125E-01 1.481788276E-09 5.231400737E-02
2.380000000E+01 9.999992191E-01 1.455725272E-09 5.209420061E-02
2.390000000E+01 9.999992256E-01 1.430158839E-09 5.187623325E-02
2.400000000E+01 9.999992321E-01 1.417129928E-09 5.166008227E-02
2.410000000E+01 9.999992384E-01 1.404349864E-09 5.144572509E-02
2.420000000E+01 9.999992447E-01 1.391740766E-09 5.123313945E-02
2.430000000E+01 9.999992509E-01 1.379695362E-09 5.102230348E-02
2.440000000E+01 9.999992571E-01 1.368409558E-09 5.081319568E-02
2.450000000E+01 9.999992631E-01 1.357261665E-09 5.060579488E-02
2.460000000E+01 9.999992691E-01 1.346249445E-09 5.040008027E-02
2.470000000E+01 9.999992750E-01 1.335370706E-09 5.019603136E-02
2.480000000E+01 9.999992808E-01 1.324623300E-09 4.999362801E-02
2.490000000E+01 9.999992866E-01 1.314005120E-09 4.979285038E-02
2.500000000E+01 9.999992923E-01 1.303514103E-09 4.959367898E-02
2.510000000E+01 9.999992979E-01 1.293148227E-09 4.939609460E-02
2.520000000E+01 9.999993035E-01 1.282905509E-09 4.920007836E-02
2.530000000E+01 9.999993092E-01 1.134837068E-09 4.900561164E-02
2.540000000E+01 9.999993146E-01 1.116513026E-09 4.881267616E-02
2.550000000E+01 9.999993200E-01 1.098514145E-09 4.862125391E-02
2.560000000E+01 9.999993253E-01 1.080833647E-09 4.843132713E-02
2.570000000E+01 9.999993305E-01 1.063464917E-09 4.824287839E-02
2.580000000E+01 9.999993357E-01 1.046401500E-09 4.805589049E-02
2.590000000E+01 9.999993409E-01 1.029637097E-09 4.787034651E-02
2.600000000E+01 9.999993459E-01 1.013165559E-09 4.768622979E-02
2.610000000E+01 9.999993510E-01 9.969808877E-10 4.750352393E-02
2.620000000E+01 9.999993559E-01 9.810772243E-10 4.732221277E-02
2.630000000E+01 9.999993608E-01 9.654488510E-10 4.714228040E-02
2.640000000E+01 9.999993657E-01 9.500901850E-10 4.696371116E-02
2.650000000E+01 9.999993704E-01 9.355504487E-10 4.678648961E-02
2.660000000E+01 9.999993752E-01 9.213398160E-10 4.661060055E-02
2.670000000E+01 9.999993799E-01 9.073688837E-10 4.643602901E-02
2.680000000E+01 9.999993845E-01 8.991751992E-10 4.626276025E-02
2.690000000E+01 9.999993890E-01 8.925023080E-10 4.609077972E-02
2.700000000E+01 9.999993936E-01 8.859034226E-10 4.592007313E-02
2.710000000E+01 9.999993980E-01 8.793774528E-10 4.575062637E-02
2.720000000E+01 9.999994024E-01 8.729233282E-10 4.558242554E-02
2.730000000E+01 9.999994068E-01 8.665399980E-10 4.541545694E-02
2.740000000E+01 9.999994111E-01 8.602264307E-10 4.524970710E-02
2.750000000E+01 9.999994154E-01 8.483623157E-10 4.508516271E-02
2.760000000E+01 9.999994197E-01 8.417347118E-10 4.492181067E-02
2.770000000E+01 9.999994238E-01 8.351840483E-10 4.475963807E-02
2.780000000E+01 9.999994280E-01 8.287091445E-10 4.459863218E-02
2.790000000E+01 9.999994321E-01 8.223088420E-10 4.443878045E-02
2.800000000E+01 9.999994361E-01 8.159820044E-10 4.428007052E-02
2.810000000E+01 9.999994401E-01 8.097275170E-10 4.412249020E-02
2.820000000E+01 9.999994442E-01 7.247663705E-10 4.396602747E-02
2.830000000E+01 9.999994481E-01 7.142170745E-10 4.381067048E-02
2.840000000E+01 9.999994520E-01 7.038361417E-10 4.365640756E-02
2.850000000E+01 9.999994559E-01 6.936204155E-10 4.350322718E-02
2.860000000E+01 9.999994597E-01 6.838302676E-10 4.335111799E-02
2.870000000E+01 9.999994634E-01 6.743539721E-10 4.320006880E-02
2.880000000E+01 9.999994672E-01 6.650251196E-10 4.305006856E-02
2.890000000E+01 9.999994708E-01 6.558409996E-10 4.290110639E-02
2.900000000E+01 9.999994745E-01 6.467989596E-10 4.275317154E-02
2.910000000E+01 9.999994781E-01 6.378964041E-10 4.260625342E-02
2.920000000E+01 9.999994817E-01 6.291307930E-10 4.246034160E-02
2.930000000E+01 9.999994852E-01 6.204996400E-10 4.231542575E-02
2.940000000E+01 9.999994887E-01 6.120005116E-10 4.217149573E-02
2.950000000E+01 9.999994922E-01 6.001998775E-10 4.202854151E-02
2.960000000E+01 9.999994956E-01 5.916392703E-10 4.188655320E-02
2.970000000E+01 9.999994990E-01 5.832103347E-10 4.174552103E-02
2.980000000E+01 9.999995024E-01 5.760321429E-10 4.160543539E-02
2.990000000E+01 9.999995057E-01 5.718574670E-10 4.146628678E-02
3.000000000E+01 9.999995090E-01 5.677277325E-10 4.132806582E-02
3.010000000E+01 9.999995123E-01 5.636422999E-10 4.119076328E-02
3.020000000E+01 9.999995155E-01 5.596005413E-10 4.105437002E-02
3.030000000E+01 9.999995187E-01 5.556018394E-10 4.091887705E-02
3.040000000E+01 9.999995218E-01 5.516455880E-10 4.078427548E-02
3.050000000E+01 9.999995250E-01 5.478587115E-10 4.065055654E-02
3.060000000E+01 9.999995281E-01 5.442837866E-10 4.051771159E-02
3.070000000E+01 9.999995311E-01 5.407437388E-10 4.038573207E-02
3.080000000E+01 9.999995342E-01 5.372381160E-10 4.025460956E-02
3.090000000E+01 9.999995372E-01 5.337664733E-10 4.012433575E-02
3.100000000E+01 9.999995402E-01 5.303283729E-10 3.999490241E-02
3.110000000E+01 9.999995431E-01 5.269233842E-10 3.986630143E-02
3.120000000E+01 9.999995460E-01 5.235510832E-10 3.973852483E-02
3.130000000E+01 9.999995490E-01 4.726528738E-10 3.961156468E-02
3.140000000E+01 9.999995519E-01 4.642911060E-10 3.948541320E-02
3.150000000E+01 9.999995547E-01 4.582049731E-10 3.936006269E-02
3.160000000E+01 9.999995576E-01 4.522062251E-10 3.923550552E-02
3.170000000E+01 9.999995603E-01 4.462933880E-10 3.911173421E-02
3.180000000E+01 9.999995631E-01 4.404650170E-10 3.898874134E-02
3.190000000E+01 9.999995659E-01 4.347196955E-10 3.886651958E-02
3.200000000E+01 9.999995686E-01 4.290560347E-10 3.874506171E-02
3.210000000E+01 9.999995713E-01 4.234726727E-10 3.862436058E-02
3.220000000E+01 9.999995739E-01 4.179682742E-10 3.850440915E-02
3.230000000E+01 9.999995766E-01 4.127316569E-10 3.838520045E-02
3.240000000E+01 9.999995792E-01 4.076008568E-10 3.826672761E-02
3.250000000E+01 9.999995818E-01 4.025411150E-10 3.814898383E-02
3.260000000E+01 9.999995843E-01 3.975512706E-10 3.803196241E-02
3.270000000E+01 9.999995869E-01 3.926301851E-10 3.791565672E-02
