# 04/03/2022 
# Density retrieved from www.chemicool.com/densities.html 
# Includes the real (n) and complex (k) part of the  refractive index. 
# Element, Sr  (Z = 38) 
# Nominal density, g cm-3 =  2.6 
#    E [keV]      n       k    Wavelength [nm] 
1.000000000E+00 9.996175898E-01 9.909377012E-05 1.239841975E+00
1.100000000E+00 9.996844292E-01 6.550202313E-05 1.127129068E+00
1.200000000E+00 9.997370954E-01 4.880768649E-05 1.033201645E+00
1.300000000E+00 9.997774412E-01 3.758073431E-05 9.537245958E-01
1.400000000E+00 9.998114745E-01 2.901805007E-05 8.856014104E-01
1.500000000E+00 9.998381179E-01 2.292565092E-05 8.265613164E-01
1.600000000E+00 9.998615214E-01 1.838921066E-05 7.749012341E-01
1.700000000E+00 9.998790457E-01 1.552911360E-05 7.293188086E-01
1.800000000E+00 9.998975543E-01 1.261005629E-05 6.888010970E-01
1.900000000E+00 9.999237090E-01 1.030827679E-05 6.525484077E-01
2.000000000E+00 9.999350265E-01 3.702783221E-05 6.199209873E-01
2.100000000E+00 9.999263477E-01 3.957606834E-05 5.904009403E-01
2.200000000E+00 9.999285532E-01 3.578001597E-05 5.635645339E-01
2.300000000E+00 9.999275331E-01 3.295035746E-05 5.390617281E-01
2.400000000E+00 9.999303379E-01 2.865008005E-05 5.166008227E-01
2.500000000E+00 9.999335657E-01 2.483702530E-05 4.959367898E-01
2.600000000E+00 9.999368761E-01 2.149047260E-05 4.768622979E-01
2.700000000E+00 9.999403874E-01 1.882316928E-05 4.592007313E-01
2.800000000E+00 9.999438010E-01 1.656860333E-05 4.428007052E-01
2.900000000E+00 9.999470189E-01 1.465168259E-05 4.275317154E-01
3.000000000E+00 9.999501939E-01 1.327304245E-05 4.132806582E-01
3.100000000E+00 9.999528672E-01 1.163878904E-05 3.999490241E-01
3.200000000E+00 9.999554633E-01 1.035011676E-05 3.874506171E-01
3.300000000E+00 9.999579038E-01 9.279388075E-06 3.757096893E-01
3.400000000E+00 9.999602364E-01 8.513115894E-06 3.646594043E-01
3.500000000E+00 9.999622807E-01 7.536533166E-06 3.542405642E-01
3.600000000E+00 9.999642342E-01 6.797096331E-06 3.444005485E-01
3.700000000E+00 9.999660572E-01 6.161225321E-06 3.350924256E-01
3.800000000E+00 9.999677524E-01 5.598175501E-06 3.262742038E-01
3.900000000E+00 9.999693309E-01 5.099038998E-06 3.179081986E-01
4.000000000E+00 9.999708010E-01 4.653174767E-06 3.099604936E-01
4.100000000E+00 9.999721756E-01 4.260845024E-06 3.024004816E-01
4.200000000E+00 9.999734616E-01 3.916268272E-06 2.952004701E-01
4.300000000E+00 9.999746613E-01 3.577645988E-06 2.883353429E-01
4.400000000E+00 9.999757866E-01 3.291185325E-06 2.817822670E-01
4.500000000E+00 9.999768405E-01 3.032501116E-06 2.755204388E-01
4.600000000E+00 9.999778329E-01 2.859498955E-06 2.695308640E-01
4.700000000E+00 9.999787581E-01 2.595479510E-06 2.637961648E-01
4.800000000E+00 9.999796321E-01 2.395491527E-06 2.583004114E-01
4.900000000E+00 9.999804543E-01 2.266786661E-06 2.530289744E-01
5.000000000E+00 9.999812290E-01 2.063392919E-06 2.479683949E-01
5.100000000E+00 9.999819592E-01 1.918852935E-06 2.431062695E-01
5.200000000E+00 9.999826476E-01 1.802006638E-06 2.384311490E-01
5.300000000E+00 9.999832995E-01 1.664927919E-06 2.339324480E-01
5.400000000E+00 9.999839125E-01 1.599177205E-06 2.296003657E-01
5.500000000E+00 9.999844999E-01 1.452038531E-06 2.254258136E-01
5.600000000E+00 9.999850486E-01 1.399977123E-06 2.214003526E-01
5.700000000E+00 9.999855780E-01 1.272861609E-06 2.175161359E-01
5.800000000E+00 9.999860720E-01 1.221965571E-06 2.137658577E-01
5.900000000E+00 9.999865487E-01 1.120946005E-06 2.101427076E-01
6.000000000E+00 9.999869971E-01 1.058521963E-06 2.066403291E-01
6.100000000E+00 9.999874231E-01 1.004102967E-06 2.032527827E-01
6.200000000E+00 9.999878312E-01 9.414209057E-07 1.999745120E-01
6.300000000E+00 9.999882145E-01 9.117717212E-07 1.968003134E-01
6.400000000E+00 9.999885918E-01 8.289657376E-07 1.937253085E-01
6.500000000E+00 9.999889430E-01 7.908822201E-07 1.907449192E-01
6.600000000E+00 9.999892755E-01 7.670976538E-07 1.878548446E-01
6.700000000E+00 9.999895932E-01 7.443701003E-07 1.850510410E-01
6.800000000E+00 9.999898971E-01 7.226378417E-07 1.823297021E-01
6.900000000E+00 9.999902095E-01 6.279743543E-07 1.796872427E-01
7.000000000E+00 9.999904916E-01 5.951364968E-07 1.771202821E-01
7.100000000E+00 9.999907617E-01 5.642978552E-07 1.746256302E-01
7.200000000E+00 9.999910205E-01 5.353143242E-07 1.722002742E-01
7.300000000E+00 9.999912685E-01 5.080538695E-07 1.698413664E-01
7.400000000E+00 9.999915056E-01 4.854868890E-07 1.675462128E-01
7.500000000E+00 9.999917306E-01 4.726268808E-07 1.653122633E-01
7.600000000E+00 9.999919468E-01 4.602711572E-07 1.631371019E-01
7.700000000E+00 9.999921546E-01 4.483936927E-07 1.610184383E-01
7.800000000E+00 9.999923544E-01 4.369701190E-07 1.589540993E-01
7.900000000E+00 9.999925667E-01 3.786871044E-07 1.569420221E-01
8.000000000E+00 9.999927548E-01 3.611975802E-07 1.549802468E-01
8.100000000E+00 9.999929358E-01 3.446456162E-07 1.530669104E-01
8.200000000E+00 9.999931101E-01 3.289716863E-07 1.512002408E-01
8.300000000E+00 9.999932781E-01 3.141206612E-07 1.493785512E-01
8.400000000E+00 9.999934400E-01 3.000414378E-07 1.476002351E-01
8.500000000E+00 9.999935934E-01 2.930113449E-07 1.458637617E-01
8.600000000E+00 9.999937416E-01 2.862367451E-07 1.441676715E-01
8.700000000E+00 9.999938846E-01 2.796944070E-07 1.425105718E-01
8.800000000E+00 9.999940228E-01 2.733738335E-07 1.408911335E-01
8.900000000E+00 9.999941564E-01 2.672651138E-07 1.393080870E-01
9.000000000E+00 9.999943028E-01 2.320288878E-07 1.377602194E-01
9.100000000E+00 9.999944300E-01 2.225422370E-07 1.362463708E-01
9.200000000E+00 9.999945529E-01 2.135048864E-07 1.347654320E-01
9.300000000E+00 9.999946718E-01 2.048916213E-07 1.333163414E-01
9.400000000E+00 9.999947868E-01 1.966788750E-07 1.318980824E-01
9.500000000E+00 9.999948982E-01 1.888446055E-07 1.305096815E-01
9.600000000E+00 9.999950047E-01 1.837003243E-07 1.291502057E-01
9.700000000E+00 9.999951071E-01 1.799322126E-07 1.278187603E-01
9.800000000E+00 9.999952065E-01 1.762788618E-07 1.265144872E-01
9.900000000E+00 9.999953028E-01 1.727356585E-07 1.252365631E-01
1.000000000E+01 9.999953963E-01 1.692982189E-07 1.239841975E-01
1.010000000E+01 9.999954870E-01 1.659623751E-07 1.227566311E-01
1.020000000E+01 9.999955905E-01 1.446761856E-07 1.215531348E-01
1.030000000E+01 9.999956778E-01 1.394194756E-07 1.203730072E-01
1.040000000E+01 9.999957625E-01 1.343836456E-07 1.192155745E-01
1.050000000E+01 9.999958448E-01 1.295576934E-07 1.180801881E-01
1.060000000E+01 9.999959247E-01 1.249312558E-07 1.169662240E-01
1.070000000E+01 9.999960023E-01 1.204945658E-07 1.158730817E-01
1.080000000E+01 9.999960778E-01 1.162384133E-07 1.148001828E-01
1.090000000E+01 9.999961498E-01 1.136400620E-07 1.137469701E-01
1.100000000E+01 9.999962195E-01 1.115832708E-07 1.127129068E-01
1.110000000E+01 9.999962873E-01 1.095818178E-07 1.116974752E-01
1.120000000E+01 9.999963533E-01 1.076337354E-07 1.107001763E-01
1.130000000E+01 9.999964176E-01 1.057371428E-07 1.097205287E-01
1.140000000E+01 9.999964801E-01 1.038902414E-07 1.087580679E-01
1.150000000E+01 9.999965411E-01 1.020913101E-07 1.078123456E-01
1.160000000E+01 9.999966161E-01 8.885143352E-08 1.068829288E-01
1.170000000E+01 9.999966756E-01 8.599279866E-08 1.059693995E-01
1.180000000E+01 9.999967334E-01 8.324032721E-08 1.050713538E-01
1.190000000E+01 9.999967898E-01 8.058934401E-08 1.041884012E-01
1.200000000E+01 9.999968448E-01 7.803541402E-08 1.033201645E-01
1.210000000E+01 9.999968983E-01 7.557432823E-08 1.024662789E-01
1.220000000E+01 9.999969505E-01 7.320209046E-08 1.016263914E-01
1.230000000E+01 9.999970014E-01 7.092674786E-08 1.008001605E-01
1.240000000E+01 9.999970495E-01 6.978738088E-08 9.998725601E-02
1.250000000E+01 9.999970966E-01 6.867524918E-08 9.918735797E-02
1.260000000E+01 9.999971425E-01 6.758949159E-08 9.840015671E-02
1.270000000E+01 9.999971873E-01 6.652928070E-08 9.762535233E-02
1.280000000E+01 9.999972311E-01 6.549382132E-08 9.686265426E-02
1.290000000E+01 9.999972864E-01 5.924198927E-08 9.611178098E-02
1.300000000E+01 9.999973300E-01 5.752191797E-08 9.537245958E-02
1.310000000E+01 9.999973725E-01 5.585947405E-08 9.464442554E-02
1.320000000E+01 9.999974140E-01 5.425236697E-08 9.392742232E-02
1.330000000E+01 9.999974545E-01 5.269841249E-08 9.322120110E-02
1.340000000E+01 9.999974941E-01 5.119552694E-08 9.252552049E-02
1.350000000E+01 9.999975326E-01 4.981067885E-08 9.184014627E-02
1.360000000E+01 9.999975687E-01 4.908086192E-08 9.116485107E-02
1.370000000E+01 9.999976041E-01 4.836696798E-08 9.049941420E-02
1.380000000E+01 9.999976387E-01 4.766853718E-08 8.984362135E-02
1.390000000E+01 9.999976725E-01 4.698512613E-08 8.919726436E-02
1.400000000E+01 9.999977186E-01 4.331727633E-08 8.856014104E-02
1.410000000E+01 9.999977533E-01 4.215030859E-08 8.793205493E-02
1.420000000E+01 9.999977871E-01 4.101950420E-08 8.731281511E-02
1.430000000E+01 9.999978202E-01 3.992353418E-08 8.670223598E-02
1.440000000E+01 9.999978512E-01 3.917952810E-08 8.610013712E-02
1.450000000E+01 9.999978808E-01 3.864098428E-08 8.550634307E-02
1.460000000E+01 9.999979097E-01 3.811346850E-08 8.492068319E-02
1.470000000E+01 9.999979507E-01 3.593104921E-08 8.434299147E-02
1.480000000E+01 9.999979817E-01 3.500814616E-08 8.377310639E-02
1.490000000E+01 9.999980119E-01 3.411251263E-08 8.321087078E-02
1.500000000E+01 9.999980388E-01 3.359432885E-08 8.265613164E-02
1.510000000E+01 9.999980647E-01 3.315084422E-08 8.210874004E-02
1.520000000E+01 9.999981049E-01 3.161591059E-08 8.156855096E-02
1.530000000E+01 9.999981346E-01 3.083190056E-08 8.103542318E-02
1.540000000E+01 9.999981604E-01 3.030494264E-08 8.050921913E-02
1.550000000E+01 9.999981978E-01 2.935298493E-08 7.998980481E-02
1.560000000E+01 9.999982281E-01 2.867813840E-08 7.947704965E-02
1.570000000E+01 9.999982652E-01 2.852163939E-08 7.897082641E-02
1.580000000E+01 9.999983017E-01 2.987925157E-08 7.847101105E-02
1.590000000E+01 9.999983516E-01 4.307730264E-08 7.797748268E-02
1.600000000E+01 9.999983940E-01 7.206345331E-08 7.749012341E-02
1.610000000E+01 9.999984153E-01 1.130333461E-07 7.700881830E-02
1.620000000E+01 9.999984181E-01 1.451507470E-07 7.653345522E-02
1.630000000E+01 9.999984154E-01 1.588727617E-07 7.606392482E-02
1.640000000E+01 9.999984094E-01 1.632096826E-07 7.560012040E-02
1.650000000E+01 9.999984108E-01 1.607943613E-07 7.514193785E-02
1.660000000E+01 9.999984191E-01 1.574671685E-07 7.468927558E-02
1.670000000E+01 9.999984303E-01 1.545868172E-07 7.424203441E-02
1.680000000E+01 9.999984490E-01 1.527519751E-07 7.380011753E-02
1.690000000E+01 9.999984520E-01 1.478443212E-07 7.336343045E-02
1.700000000E+01 9.999984671E-01 1.454864069E-07 7.293188086E-02
1.710000000E+01 9.999984850E-01 1.437897869E-07 7.250537863E-02
1.720000000E+01 9.999984910E-01 1.388882375E-07 7.208383573E-02
1.730000000E+01 9.999985040E-01 1.360524253E-07 7.166716616E-02
1.740000000E+01 9.999985209E-01 1.344107764E-07 7.125528590E-02
1.750000000E+01 9.999985377E-01 1.328790422E-07 7.084811283E-02
1.760000000E+01 9.999985454E-01 1.278557401E-07 7.044556674E-02
1.770000000E+01 9.999985588E-01 1.252553214E-07 7.004756919E-02
1.780000000E+01 9.999985736E-01 1.233389220E-07 6.965404352E-02
1.790000000E+01 9.999985895E-01 1.219646829E-07 6.926491478E-02
1.800000000E+01 9.999985997E-01 1.178558390E-07 6.888010970E-02
1.810000000E+01 9.999986131E-01 1.155082814E-07 6.849955661E-02
1.820000000E+01 9.999986262E-01 1.132164604E-07 6.812318542E-02
1.830000000E+01 9.999986403E-01 1.115051929E-07 6.775092757E-02
1.840000000E+01 9.999986550E-01 1.102964735E-07 6.738271601E-02
1.850000000E+01 9.999986695E-01 1.091073019E-07 6.701848511E-02
1.860000000E+01 9.999986786E-01 1.046557053E-07 6.665817068E-02
1.870000000E+01 9.999986913E-01 1.026408786E-07 6.630170987E-02
1.880000000E+01 9.999987037E-01 1.006723416E-07 6.594904120E-02
1.890000000E+01 9.999987161E-01 9.874881851E-08 6.560010448E-02
1.900000000E+01 9.999987294E-01 9.763297588E-08 6.525484077E-02
1.910000000E+01 9.999987427E-01 9.661331732E-08 6.491319239E-02
1.920000000E+01 9.999987527E-01 9.332448919E-08 6.457510284E-02
1.930000000E+01 9.999987646E-01 9.159761266E-08 6.424051682E-02
1.940000000E+01 9.999987764E-01 8.990906858E-08 6.390938013E-02
1.950000000E+01 9.999987879E-01 8.826394653E-08 6.358163972E-02
1.960000000E+01 9.999988003E-01 8.736559159E-08 6.325724360E-02
1.970000000E+01 9.999988124E-01 8.648088244E-08 6.293614084E-02
1.980000000E+01 9.999988220E-01 8.353288121E-08 6.261828154E-02
1.990000000E+01 9.999988330E-01 8.202586069E-08 6.230361681E-02
2.000000000E+01 9.999988445E-01 8.109051925E-08 6.199209873E-02
2.010000000E+01 9.999988560E-01 8.028565555E-08 6.168368033E-02
2.020000000E+01 9.999988654E-01 7.767665548E-08 6.137831557E-02
2.030000000E+01 9.999988759E-01 7.628809613E-08 6.107595934E-02
2.040000000E+01 9.999988862E-01 7.492903273E-08 6.077656738E-02
2.050000000E+01 9.999988965E-01 7.371011171E-08 6.048009632E-02
2.060000000E+01 9.999989072E-01 7.299621653E-08 6.018650362E-02
2.070000000E+01 9.999989178E-01 7.229264264E-08 5.989574756E-02
2.080000000E+01 9.999989265E-01 6.977487202E-08 5.960778724E-02
2.090000000E+01 9.999989363E-01 6.855299924E-08 5.932258252E-02
2.100000000E+01 9.999989461E-01 6.755750466E-08 5.904009403E-02
2.110000000E+01 9.999989560E-01 6.691866660E-08 5.876028316E-02
2.120000000E+01 9.999989659E-01 6.628884736E-08 5.848311201E-02
2.130000000E+01 9.999989742E-01 6.394819470E-08 5.820854341E-02
2.140000000E+01 9.999989834E-01 6.285671937E-08 5.793654087E-02
2.150000000E+01 9.999989925E-01 6.193882186E-08 5.766706859E-02
2.160000000E+01 9.999990018E-01 6.136664181E-08 5.740009142E-02
2.170000000E+01 9.999990102E-01 5.972321977E-08 5.713557487E-02
2.180000000E+01 9.999990189E-01 5.872124783E-08 5.687348507E-02
2.190000000E+01 9.999990276E-01 5.773916467E-08 5.661378879E-02
2.200000000E+01 9.999990364E-01 5.721350960E-08 5.635645339E-02
2.210000000E+01 9.999990451E-01 5.669691171E-08 5.610144681E-02
2.220000000E+01 9.999990528E-01 5.492781495E-08 5.584873759E-02
2.230000000E+01 9.999990610E-01 5.402708140E-08 5.559829482E-02
2.240000000E+01 9.999990691E-01 5.314382820E-08 5.535008815E-02
2.250000000E+01 9.999990772E-01 5.242624665E-08 5.510408776E-02
2.260000000E+01 9.999990854E-01 5.196332400E-08 5.486026436E-02
2.270000000E+01 9.999990934E-01 5.150650578E-08 5.461858919E-02
2.280000000E+01 9.999991006E-01 4.979553425E-08 5.437903397E-02
2.290000000E+01 9.999991082E-01 4.899879661E-08 5.414157094E-02
2.300000000E+01 9.999991158E-01 4.839793420E-08 5.390617281E-02
2.310000000E+01 9.999991235E-01 4.797981145E-08 5.367281275E-02
2.320000000E+01 9.999991305E-01 4.671634036E-08 5.344146442E-02
2.330000000E+01 9.999991378E-01 4.598498993E-08 5.321210191E-02
2.340000000E+01 9.999991450E-01 4.526721489E-08 5.298469977E-02
2.350000000E+01 9.999991522E-01 4.487862816E-08 5.275923296E-02
2.360000000E+01 9.999991590E-01 4.385851987E-08 5.253567689E-02
2.370000000E+01 9.999991660E-01 4.330516087E-08 5.231400737E-02
2.380000000E+01 9.999991730E-01 4.294201647E-08 5.209420061E-02
2.390000000E+01 9.999991799E-01 4.258342083E-08 5.187623325E-02
2.400000000E+01 9.999991863E-01 4.122866485E-08 5.166008227E-02
2.410000000E+01 9.999991929E-01 4.060222000E-08 5.144572509E-02
2.420000000E+01 9.999991994E-01 3.998703623E-08 5.123313945E-02
2.430000000E+01 9.999992059E-01 3.959299245E-08 5.102230348E-02
2.440000000E+01 9.999992124E-01 3.926912475E-08 5.081319568E-02
2.450000000E+01 9.999992188E-01 3.894921468E-08 5.060579488E-02
2.460000000E+01 9.999992247E-01 3.764345461E-08 5.040008027E-02
2.470000000E+01 9.999992309E-01 3.708338901E-08 5.019603136E-02
2.480000000E+01 9.999992370E-01 3.653316134E-08 4.999362801E-02
2.490000000E+01 9.999992430E-01 3.599256475E-08 4.979285038E-02
2.500000000E+01 9.999992490E-01 3.565642074E-08 4.959367898E-02
2.510000000E+01 9.999992550E-01 3.537287180E-08 4.939609460E-02
2.520000000E+01 9.999992609E-01 3.509269174E-08 4.920007836E-02
2.530000000E+01 9.999992663E-01 3.392485911E-08 4.900561164E-02
2.540000000E+01 9.999992720E-01 3.343006766E-08 4.881267616E-02
2.550000000E+01 9.999992776E-01 3.294375471E-08 4.862125391E-02
2.560000000E+01 9.999992832E-01 3.246574660E-08 4.843132713E-02
2.570000000E+01 9.999992887E-01 3.218132941E-08 4.824287839E-02
2.580000000E+01 9.999992942E-01 3.193234521E-08 4.805589049E-02
2.590000000E+01 9.999992997E-01 3.168623942E-08 4.787034651E-02
2.600000000E+01 9.999993048E-01 3.063862836E-08 4.768622979E-02
2.610000000E+01 9.999993100E-01 3.020095521E-08 4.750352393E-02
2.620000000E+01 9.999993152E-01 2.977059908E-08 4.732221277E-02
2.630000000E+01 9.999993203E-01 2.934741388E-08 4.714228040E-02
2.640000000E+01 9.999993254E-01 2.894907906E-08 4.696371116E-02
2.650000000E+01 9.999993305E-01 2.873100768E-08 4.678648961E-02
2.660000000E+01 9.999993355E-01 2.851539112E-08 4.661060055E-02
2.670000000E+01 9.999993405E-01 2.830219268E-08 4.643602901E-02
2.680000000E+01 9.999993454E-01 2.809137634E-08 4.626276025E-02
2.690000000E+01 9.999993503E-01 2.788290674E-08 4.609077972E-02
2.700000000E+01 9.999993551E-01 2.767674917E-08 4.592007313E-02
2.710000000E+01 9.999993595E-01 2.624422420E-08 4.575062637E-02
2.720000000E+01 9.999993641E-01 2.588475211E-08 4.558242554E-02
2.730000000E+01 9.999993687E-01 2.553104653E-08 4.541545694E-02
2.740000000E+01 9.999993733E-01 2.518299697E-08 4.524970710E-02
2.750000000E+01 9.999993778E-01 2.484049540E-08 4.508516271E-02
2.760000000E+01 9.999993823E-01 2.450343621E-08 4.492181067E-02
2.770000000E+01 9.999993867E-01 2.417552223E-08 4.475963807E-02
2.780000000E+01 9.999993911E-01 2.400191043E-08 4.459863218E-02
2.790000000E+01 9.999993954E-01 2.383016207E-08 4.443878045E-02
2.800000000E+01 9.999993998E-01 2.366025058E-08 4.428007052E-02
2.810000000E+01 9.999994040E-01 2.349214987E-08 4.412249020E-02
2.820000000E+01 9.999994082E-01 2.332583428E-08 4.396602747E-02
2.830000000E+01 9.999994124E-01 2.316127865E-08 4.381067048E-02
2.840000000E+01 9.999994165E-01 2.299845821E-08 4.365640756E-02
2.850000000E+01 9.999994206E-01 2.283734867E-08 4.350322718E-02
2.860000000E+01 9.999994244E-01 2.145992189E-08 4.335111799E-02
2.870000000E+01 9.999994284E-01 2.118129163E-08 4.320006880E-02
2.880000000E+01 9.999994323E-01 2.090689907E-08 4.305006856E-02
2.890000000E+01 9.999994362E-01 2.063666719E-08 4.290110639E-02
2.900000000E+01 9.999994401E-01 2.037052062E-08 4.275317154E-02
2.910000000E+01 9.999994439E-01 2.010838561E-08 4.260625342E-02
2.920000000E+01 9.999994477E-01 1.985018995E-08 4.246034160E-02
2.930000000E+01 9.999994514E-01 1.959586296E-08 4.231542575E-02
2.940000000E+01 9.999994551E-01 1.934533547E-08 4.217149573E-02
2.950000000E+01 9.999994588E-01 1.909853972E-08 4.202854151E-02
2.960000000E+01 9.999994624E-01 1.894633327E-08 4.188655320E-02
2.970000000E+01 9.999994661E-01 1.881896333E-08 4.174552103E-02
2.980000000E+01 9.999994696E-01 1.869287348E-08 4.160543539E-02
2.990000000E+01 9.999994732E-01 1.856804662E-08 4.146628678E-02
3.000000000E+01 9.999994767E-01 1.844446596E-08 4.132806582E-02
3.010000000E+01 9.999994802E-01 1.832211495E-08 4.119076328E-02
3.020000000E+01 9.999994836E-01 1.820097733E-08 4.105437002E-02
3.030000000E+01 9.999994870E-01 1.808103711E-08 4.091887705E-02
3.040000000E+01 9.999994904E-01 1.796227857E-08 4.078427548E-02
3.050000000E+01 9.999994937E-01 1.784468623E-08 4.065055654E-02
3.060000000E+01 9.999994970E-01 1.772824487E-08 4.051771159E-02
3.070000000E+01 9.999995003E-01 1.761293951E-08 4.038573207E-02
3.080000000E+01 9.999995034E-01 1.626047108E-08 4.025460956E-02
3.090000000E+01 9.999995066E-01 1.606354244E-08 4.012433575E-02
3.100000000E+01 9.999995097E-01 1.586940109E-08 3.999490241E-02
3.110000000E+01 9.999995129E-01 1.567799991E-08 3.986630143E-02
3.120000000E+01 9.999995160E-01 1.548929274E-08 3.973852483E-02
3.130000000E+01 9.999995190E-01 1.530323430E-08 3.961156468E-02
3.140000000E+01 9.999995221E-01 1.511978021E-08 3.948541320E-02
3.150000000E+01 9.999995251E-01 1.493888698E-08 3.936006269E-02
3.160000000E+01 9.999995281E-01 1.476051195E-08 3.923550552E-02
3.170000000E+01 9.999995311E-01 1.458461331E-08 3.911173421E-02
