# 04/03/2022 
# Density retrieved from www.chemicool.com/densities.html 
# Includes the real (n) and complex (k) part of the  refractive index. 
# Element, Ta  (Z = 73) 
# Nominal density, g cm-3 =  16.6 
#    E [keV]      n       k    Wavelength [nm] 
1.000000000E+00 9.982592475E-01 5.706488173E-04 1.239841975E+00
1.100000000E+00 9.985522510E-01 4.452738082E-04 1.127129068E+00
1.200000000E+00 9.987973255E-01 3.338760779E-04 1.033201645E+00
1.300000000E+00 9.989816357E-01 2.658568119E-04 9.537245958E-01
1.400000000E+00 9.991529306E-01 2.096877639E-04 8.856014104E-01
1.500000000E+00 9.992775741E-01 1.729131827E-04 8.265613164E-01
1.600000000E+00 9.994146899E-01 1.398671934E-04 7.749012341E-01
1.700000000E+00 9.995827378E-01 1.155294202E-04 7.293188086E-01
1.800000000E+00 9.996772603E-01 3.264191207E-04 6.888010970E-01
1.900000000E+00 9.996238600E-01 3.476976508E-04 6.525484077E-01
2.000000000E+00 9.995616330E-01 3.074150912E-04 6.199209873E-01
2.100000000E+00 9.995775441E-01 2.628018320E-04 5.904009403E-01
2.200000000E+00 9.996164236E-01 2.422646723E-04 5.635645339E-01
2.300000000E+00 9.996095726E-01 2.199125031E-04 5.390617281E-01
2.400000000E+00 9.996283351E-01 1.904804101E-04 5.166008227E-01
2.500000000E+00 9.996485864E-01 1.754742454E-04 4.959367898E-01
2.600000000E+00 9.996653667E-01 1.559021766E-04 4.768622979E-01
2.700000000E+00 9.996839321E-01 1.404637313E-04 4.592007313E-01
2.800000000E+00 9.996984293E-01 1.271406077E-04 4.428007052E-01
2.900000000E+00 9.997123043E-01 1.118474902E-04 4.275317154E-01
3.000000000E+00 9.997298103E-01 1.031381675E-04 4.132806582E-01
3.100000000E+00 9.997416558E-01 8.937960125E-05 3.999490241E-01
3.200000000E+00 9.997564122E-01 8.233382848E-05 3.874506171E-01
3.300000000E+00 9.997680574E-01 7.234928895E-05 3.757096893E-01
3.400000000E+00 9.997800542E-01 6.562224682E-05 3.646594043E-01
3.500000000E+00 9.997924430E-01 6.192597332E-05 3.542405642E-01
3.600000000E+00 9.998017141E-01 5.379984134E-05 3.444005485E-01
3.700000000E+00 9.998114489E-01 4.904051648E-05 3.350924256E-01
3.800000000E+00 9.998212420E-01 4.649339825E-05 3.262742038E-01
3.900000000E+00 9.998292193E-01 4.085592340E-05 3.179081986E-01
4.000000000E+00 9.998371889E-01 3.742170521E-05 3.099604936E-01
4.100000000E+00 9.998449084E-01 3.523374915E-05 3.024004816E-01
4.200000000E+00 9.998522058E-01 3.357592535E-05 2.952004701E-01
4.300000000E+00 9.998584256E-01 2.913216715E-05 2.883353429E-01
4.400000000E+00 9.998646019E-01 2.688533976E-05 2.817822670E-01
4.500000000E+00 9.998704916E-01 2.539501263E-05 2.755204388E-01
4.600000000E+00 9.998760612E-01 2.430288307E-05 2.695308640E-01
4.700000000E+00 9.998810937E-01 2.138004431E-05 2.637961648E-01
4.800000000E+00 9.998859344E-01 1.986212794E-05 2.583004114E-01
4.900000000E+00 9.998904855E-01 1.847397400E-05 2.530289744E-01
5.000000000E+00 9.998947835E-01 1.734530127E-05 2.479683949E-01
5.100000000E+00 9.998988692E-01 1.667176208E-05 2.431062695E-01
5.200000000E+00 9.999027215E-01 1.603670606E-05 2.384311490E-01
5.300000000E+00 9.999064259E-01 1.403716321E-05 2.339324480E-01
5.400000000E+00 9.999098780E-01 1.314207303E-05 2.296003657E-01
5.500000000E+00 9.999131426E-01 1.231552833E-05 2.254258136E-01
5.600000000E+00 9.999162329E-01 1.155127475E-05 2.214003526E-01
5.700000000E+00 9.999191560E-01 1.095076539E-05 2.175161359E-01
5.800000000E+00 9.999219197E-01 1.057640808E-05 2.137658577E-01
5.900000000E+00 9.999245441E-01 1.022092409E-05 2.101427076E-01
6.000000000E+00 9.999270383E-01 9.883065768E-06 2.066403291E-01
6.100000000E+00 9.999296212E-01 8.547304731E-06 2.032527827E-01
6.200000000E+00 9.999319159E-01 8.067765622E-06 1.999745120E-01
6.300000000E+00 9.999341002E-01 7.620459813E-06 1.968003134E-01
6.400000000E+00 9.999361811E-01 7.202803745E-06 1.937253085E-01
6.500000000E+00 9.999381650E-01 6.812455001E-06 1.907449192E-01
6.600000000E+00 9.999400310E-01 6.576891077E-06 1.878548446E-01
6.700000000E+00 9.999418077E-01 6.382031083E-06 1.850510410E-01
6.800000000E+00 9.999435067E-01 6.195704483E-06 1.823297021E-01
6.900000000E+00 9.999451323E-01 6.017420191E-06 1.796872427E-01
7.000000000E+00 9.999469922E-01 5.241191603E-06 1.771202821E-01
7.100000000E+00 9.999485312E-01 4.982259396E-06 1.746256302E-01
7.200000000E+00 9.999500042E-01 4.738624629E-06 1.722002742E-01
7.300000000E+00 9.999514149E-01 4.509208822E-06 1.698413664E-01
7.400000000E+00 9.999527668E-01 4.293022159E-06 1.675462128E-01
7.500000000E+00 9.999540631E-01 4.089155162E-06 1.653122633E-01
7.600000000E+00 9.999552698E-01 3.970697846E-06 1.631371019E-01
7.700000000E+00 9.999564241E-01 3.868232544E-06 1.610184383E-01
7.800000000E+00 9.999575343E-01 3.769682899E-06 1.589540993E-01
7.900000000E+00 9.999586026E-01 3.674851908E-06 1.569420221E-01
8.000000000E+00 9.999599825E-01 3.248521143E-06 1.549802468E-01
8.100000000E+00 9.999610298E-01 3.106512202E-06 1.530669104E-01
8.200000000E+00 9.999620367E-01 2.971904567E-06 1.512002408E-01
8.300000000E+00 9.999630052E-01 2.844237807E-06 1.493785512E-01
8.400000000E+00 9.999639369E-01 2.723407122E-06 1.476002351E-01
8.500000000E+00 9.999647805E-01 2.659703896E-06 1.458637617E-01
8.600000000E+00 9.999655948E-01 2.598209931E-06 1.441676715E-01
8.700000000E+00 9.999666713E-01 2.401404849E-06 1.425105718E-01
8.800000000E+00 9.999675146E-01 2.304490481E-06 1.408911335E-01
8.900000000E+00 9.999683266E-01 2.212237951E-06 1.393080870E-01
9.000000000E+00 9.999691034E-01 2.126950097E-06 1.377602194E-01
9.100000000E+00 9.999697787E-01 2.080460788E-06 1.362463708E-01
9.200000000E+00 9.999707234E-01 1.962833573E-06 1.347654320E-01
9.300000000E+00 9.999714830E-01 1.887583939E-06 1.333163414E-01
9.400000000E+00 9.999721607E-01 1.829137451E-06 1.318980824E-01
9.500000000E+00 9.999730649E-01 1.748138586E-06 1.305096815E-01
9.600000000E+00 9.999737931E-01 1.689324404E-06 1.291502057E-01
9.700000000E+00 9.999748480E-01 1.667422406E-06 1.278187603E-01
9.800000000E+00 9.999760282E-01 1.988637658E-06 1.265144872E-01
9.900000000E+00 9.999767352E-01 2.941445370E-06 1.252365631E-01
1.000000000E+01 9.999768367E-01 3.541423119E-06 1.239841975E-01
1.010000000E+01 9.999768161E-01 3.673704790E-06 1.227566311E-01
1.020000000E+01 9.999768435E-01 3.590664779E-06 1.215531348E-01
1.030000000E+01 9.999770195E-01 3.446268029E-06 1.203730072E-01
1.040000000E+01 9.999773821E-01 3.358970211E-06 1.192155745E-01
1.050000000E+01 9.999776876E-01 3.214085103E-06 1.180801881E-01
1.060000000E+01 9.999780321E-01 3.104727068E-06 1.169662240E-01
1.070000000E+01 9.999784349E-01 3.043082296E-06 1.158730817E-01
1.080000000E+01 9.999788408E-01 2.898593362E-06 1.148001828E-01
1.090000000E+01 9.999792294E-01 2.822364048E-06 1.137469701E-01
1.100000000E+01 9.999797756E-01 2.746644185E-06 1.127129068E-01
1.110000000E+01 9.999803150E-01 2.825851830E-06 1.116974752E-01
1.120000000E+01 9.999807201E-01 3.034532428E-06 1.107001763E-01
1.130000000E+01 9.999809211E-01 3.247642786E-06 1.097205287E-01
1.140000000E+01 9.999809541E-01 3.276332653E-06 1.087580679E-01
1.150000000E+01 9.999812176E-01 3.219070768E-06 1.078123456E-01
1.160000000E+01 9.999814886E-01 3.235722544E-06 1.068829288E-01
1.170000000E+01 9.999817740E-01 3.251938613E-06 1.059693995E-01
1.180000000E+01 9.999818488E-01 3.306848985E-06 1.050713538E-01
1.190000000E+01 9.999821238E-01 3.265092286E-06 1.041884012E-01
1.200000000E+01 9.999821734E-01 3.164666560E-06 1.033201645E-01
1.210000000E+01 9.999824668E-01 3.112574173E-06 1.024662789E-01
1.220000000E+01 9.999825757E-01 2.983139250E-06 1.016263914E-01
1.230000000E+01 9.999828106E-01 2.913915966E-06 1.008001605E-01
1.240000000E+01 9.999830868E-01 2.867106832E-06 9.998725601E-02
1.250000000E+01 9.999832180E-01 2.738080837E-06 9.918735797E-02
1.260000000E+01 9.999834288E-01 2.661887043E-06 9.840015671E-02
1.270000000E+01 9.999836826E-01 2.616432203E-06 9.762535233E-02
1.280000000E+01 9.999839365E-01 2.575710145E-06 9.686265426E-02
1.290000000E+01 9.999840723E-01 2.448350027E-06 9.611178098E-02
1.300000000E+01 9.999842792E-01 2.381826259E-06 9.537245958E-02
1.310000000E+01 9.999844839E-01 2.318776830E-06 9.464442554E-02
1.320000000E+01 9.999847181E-01 2.283776927E-06 9.392742232E-02
1.330000000E+01 9.999849471E-01 2.249563524E-06 9.322120110E-02
1.340000000E+01 9.999850921E-01 2.137265239E-06 9.252552049E-02
1.350000000E+01 9.999852874E-01 2.080984706E-06 9.184014627E-02
1.360000000E+01 9.999854902E-01 2.037684928E-06 9.116485107E-02
1.370000000E+01 9.999857012E-01 2.008046269E-06 9.049941420E-02
1.380000000E+01 9.999859077E-01 1.979049592E-06 8.984362135E-02
1.390000000E+01 9.999860460E-01 1.874842781E-06 8.919726436E-02
1.400000000E+01 9.999862271E-01 1.827290002E-06 8.856014104E-02
1.410000000E+01 9.999864048E-01 1.781184622E-06 8.793205493E-02
1.420000000E+01 9.999865883E-01 1.747541558E-06 8.731281511E-02
1.430000000E+01 9.999867752E-01 1.723185876E-06 8.670223598E-02
1.440000000E+01 9.999869583E-01 1.699335840E-06 8.610013712E-02
1.450000000E+01 9.999870930E-01 1.611151265E-06 8.550634307E-02
1.460000000E+01 9.999872573E-01 1.571772299E-06 8.492068319E-02
1.470000000E+01 9.999874185E-01 1.533545416E-06 8.434299147E-02
1.480000000E+01 9.999875812E-01 1.503037453E-06 8.377310639E-02
1.490000000E+01 9.999877473E-01 1.482930155E-06 8.321087078E-02
1.500000000E+01 9.999879101E-01 1.463223661E-06 8.265613164E-02
1.510000000E+01 9.999880408E-01 1.392412310E-06 8.210874004E-02
1.520000000E+01 9.999881894E-01 1.359650160E-06 8.156855096E-02
1.530000000E+01 9.999883354E-01 1.327809862E-06 8.103542318E-02
1.540000000E+01 9.999884786E-01 1.296860308E-06 8.050921913E-02
1.550000000E+01 9.999886243E-01 1.275733410E-06 7.998980481E-02
1.560000000E+01 9.999887697E-01 1.259430275E-06 7.947704965E-02
1.570000000E+01 9.999889123E-01 1.243437672E-06 7.897082641E-02
1.580000000E+01 9.999890307E-01 1.182213928E-06 7.847101105E-02
1.590000000E+01 9.999891626E-01 1.155497702E-06 7.797748268E-02
1.600000000E+01 9.999892922E-01 1.129501735E-06 7.749012341E-02
1.610000000E+01 9.999894195E-01 1.104202753E-06 7.700881830E-02
1.620000000E+01 9.999895466E-01 1.084080733E-06 7.653345522E-02
1.630000000E+01 9.999896745E-01 1.070819931E-06 7.606392482E-02
1.640000000E+01 9.999898000E-01 1.057800965E-06 7.560012040E-02
1.650000000E+01 9.999899233E-01 1.045017989E-06 7.514193785E-02
1.660000000E+01 9.999900279E-01 9.884527771E-07 7.468927558E-02
1.670000000E+01 9.999901434E-01 9.671078583E-07 7.424203441E-02
1.680000000E+01 9.999902570E-01 9.463118500E-07 7.380011753E-02
1.690000000E+01 9.999903685E-01 9.260478367E-07 7.336343045E-02
1.700000000E+01 9.999904812E-01 9.142318648E-07 7.293188086E-02
1.710000000E+01 9.999905922E-01 9.035703599E-07 7.250537863E-02
1.720000000E+01 9.999907012E-01 8.930942703E-07 7.208383573E-02
1.730000000E+01 9.999907986E-01 8.509066218E-07 7.166716616E-02
1.740000000E+01 9.999909016E-01 8.332840673E-07 7.125528590E-02
1.750000000E+01 9.999910029E-01 8.160965131E-07 7.084811283E-02
1.760000000E+01 9.999911026E-01 7.993310866E-07 7.044556674E-02
1.770000000E+01 9.999912021E-01 7.878830040E-07 7.004756919E-02
1.780000000E+01 9.999913006E-01 7.790552529E-07 6.965404352E-02
1.790000000E+01 9.999913976E-01 7.703750392E-07 6.926491478E-02
1.800000000E+01 9.999914929E-01 7.618390936E-07 6.888010970E-02
1.810000000E+01 9.999915790E-01 7.222787965E-07 6.849955661E-02
1.820000000E+01 9.999916697E-01 7.079673294E-07 6.812318542E-02
1.830000000E+01 9.999917589E-01 6.939938327E-07 6.775092757E-02
1.840000000E+01 9.999918468E-01 6.803487366E-07 6.738271601E-02
1.850000000E+01 9.999919332E-01 6.670227896E-07 6.701848511E-02
1.860000000E+01 9.999920184E-01 6.545537425E-07 6.665817068E-02
1.870000000E+01 9.999921035E-01 6.475718858E-07 6.630170987E-02
1.880000000E+01 9.999921873E-01 6.407011451E-07 6.594904120E-02
1.890000000E+01 9.999922698E-01 6.339391751E-07 6.560010448E-02
1.900000000E+01 9.999923509E-01 6.272836918E-07 6.525484077E-02
1.910000000E+01 9.999924258E-01 5.938747492E-07 6.491319239E-02
1.920000000E+01 9.999925036E-01 5.826523255E-07 6.457510284E-02
1.930000000E+01 9.999925801E-01 5.716818162E-07 6.424051682E-02
1.940000000E+01 9.999926555E-01 5.609564464E-07 6.390938013E-02
1.950000000E+01 9.999927299E-01 5.509252615E-07 6.358163972E-02
1.960000000E+01 9.999928039E-01 5.453179162E-07 6.325724360E-02
1.970000000E+01 9.999928767E-01 5.397957450E-07 6.293614084E-02
1.980000000E+01 9.999929485E-01 5.343570317E-07 6.261828154E-02
1.990000000E+01 9.999930192E-01 5.290001028E-07 6.230361681E-02
2.000000000E+01 9.999930862E-01 5.019027480E-07 6.199209873E-02
2.010000000E+01 9.999931543E-01 4.928106172E-07 6.168368033E-02
2.020000000E+01 9.999932214E-01 4.839137782E-07 6.137831557E-02
2.030000000E+01 9.999932876E-01 4.752072074E-07 6.107595934E-02
2.040000000E+01 9.999933527E-01 4.666860326E-07 6.077656738E-02
2.050000000E+01 9.999934170E-01 4.583455280E-07 6.048009632E-02
2.060000000E+01 9.999934806E-01 4.525650061E-07 6.018650362E-02
2.070000000E+01 9.999935434E-01 4.482029592E-07 5.989574756E-02
2.080000000E+01 9.999936053E-01 4.439036751E-07 5.960778724E-02
2.090000000E+01 9.999936664E-01 4.396659554E-07 5.932258252E-02
2.100000000E+01 9.999937266E-01 4.354886303E-07 5.904009403E-02
2.110000000E+01 9.999937859E-01 4.313705577E-07 5.876028316E-02
2.120000000E+01 9.999938430E-01 4.054351998E-07 5.848311201E-02
2.130000000E+01 9.999939005E-01 3.984911773E-07 5.820854341E-02
2.140000000E+01 9.999939572E-01 3.916880684E-07 5.793654087E-02
2.150000000E+01 9.999940130E-01 3.850224485E-07 5.766706859E-02
2.160000000E+01 9.999940682E-01 3.784909906E-07 5.740009142E-02
2.170000000E+01 9.999941225E-01 3.720904623E-07 5.713557487E-02
2.180000000E+01 9.999941762E-01 3.667197567E-07 5.687348507E-02
2.190000000E+01 9.999942293E-01 3.633783641E-07 5.661378879E-02
2.200000000E+01 9.999942816E-01 3.600824322E-07 5.635645339E-02
2.210000000E+01 9.999943332E-01 3.568311402E-07 5.610144681E-02
2.220000000E+01 9.999943842E-01 3.536236856E-07 5.584873759E-02
2.230000000E+01 9.999944344E-01 3.504592837E-07 5.559829482E-02
2.240000000E+01 9.999944840E-01 3.473371675E-07 5.535008815E-02
2.250000000E+01 9.999945329E-01 3.258670822E-07 5.510408776E-02
2.260000000E+01 9.999945812E-01 3.205898264E-07 5.486026436E-02
2.270000000E+01 9.999946288E-01 3.154136674E-07 5.461858919E-02
2.280000000E+01 9.999946758E-01 3.103362863E-07 5.437903397E-02
2.290000000E+01 9.999947222E-01 3.053554267E-07 5.414157094E-02
2.300000000E+01 9.999947680E-01 3.004688927E-07 5.390617281E-02
2.310000000E+01 9.999948132E-01 2.962249954E-07 5.367281275E-02
2.320000000E+01 9.999948578E-01 2.936768352E-07 5.344146442E-02
2.330000000E+01 9.999949018E-01 2.911614135E-07 5.321210191E-02
2.340000000E+01 9.999949453E-01 2.886781718E-07 5.298469977E-02
2.350000000E+01 9.999949882E-01 2.862265636E-07 5.275923296E-02
2.360000000E+01 9.999950306E-01 2.838060539E-07 5.253567689E-02
2.370000000E+01 9.999950725E-01 2.814161188E-07 5.231400737E-02
2.380000000E+01 9.999951138E-01 2.790562456E-07 5.209420061E-02
2.390000000E+01 9.999951552E-01 2.609879805E-07 5.187623325E-02
2.400000000E+01 9.999951956E-01 2.569990281E-07 5.166008227E-02
2.410000000E+01 9.999952355E-01 2.530821250E-07 5.144572509E-02
2.420000000E+01 9.999952748E-01 2.492357132E-07 5.123313945E-02
2.430000000E+01 9.999953137E-01 2.454582742E-07 5.102230348E-02
2.440000000E+01 9.999953521E-01 2.417483280E-07 5.081319568E-02
2.450000000E+01 9.999953901E-01 2.381044318E-07 5.060579488E-02
2.460000000E+01 9.999954275E-01 2.347824002E-07 5.040008027E-02
2.470000000E+01 9.999954645E-01 2.328851764E-07 5.019603136E-02
2.480000000E+01 9.999955010E-01 2.310108567E-07 4.999362801E-02
2.490000000E+01 9.999955370E-01 2.291590737E-07 4.979285038E-02
2.500000000E+01 9.999955727E-01 2.273294677E-07 4.959367898E-02
2.510000000E+01 9.999956079E-01 2.255216858E-07 4.939609460E-02
2.520000000E+01 9.999956427E-01 2.237353825E-07 4.920007836E-02
2.530000000E+01 9.999956770E-01 2.219702187E-07 4.900561164E-02
2.540000000E+01 9.999957110E-01 2.202258622E-07 4.881267616E-02
2.550000000E+01 9.999957446E-01 2.185019874E-07 4.862125391E-02
2.560000000E+01 9.999957778E-01 2.167982747E-07 4.843132713E-02
2.570000000E+01 9.999958106E-01 2.151144109E-07 4.824287839E-02
2.580000000E+01 9.999958430E-01 2.134500891E-07 4.805589049E-02
2.590000000E+01 9.999958773E-01 1.941349574E-07 4.787034651E-02
2.600000000E+01 9.999959091E-01 1.913843124E-07 4.768622979E-02
2.610000000E+01 9.999959406E-01 1.886796251E-07 4.750352393E-02
2.620000000E+01 9.999959717E-01 1.860199765E-07 4.732221277E-02
2.630000000E+01 9.999960024E-01 1.834044692E-07 4.714228040E-02
2.640000000E+01 9.999960328E-01 1.808322269E-07 4.696371116E-02
2.650000000E+01 9.999960628E-01 1.783023938E-07 4.678648961E-02
2.660000000E+01 9.999960925E-01 1.758141336E-07 4.661060055E-02
2.670000000E+01 9.999961219E-01 1.733666297E-07 4.643602901E-02
2.680000000E+01 9.999961509E-01 1.709590842E-07 4.626276025E-02
2.690000000E+01 9.999961796E-01 1.685907175E-07 4.609077972E-02
2.700000000E+01 9.999962080E-01 1.662607679E-07 4.592007313E-02
2.710000000E+01 9.999962361E-01 1.639684910E-07 4.575062637E-02
2.720000000E+01 9.999962639E-01 1.617131594E-07 4.558242554E-02
2.730000000E+01 9.999962912E-01 1.603359794E-07 4.541545694E-02
2.740000000E+01 9.999963182E-01 1.591677795E-07 4.524970710E-02
2.750000000E+01 9.999963450E-01 1.580123003E-07 4.508516271E-02
2.760000000E+01 9.999963714E-01 1.568693579E-07 4.492181067E-02
2.770000000E+01 9.999963976E-01 1.557387717E-07 4.475963807E-02
2.780000000E+01 9.999964234E-01 1.546203640E-07 4.459863218E-02
2.790000000E+01 9.999964490E-01 1.535139606E-07 4.443878045E-02
2.800000000E+01 9.999964743E-01 1.524193904E-07 4.428007052E-02
2.810000000E+01 9.999964994E-01 1.513364852E-07 4.412249020E-02
2.820000000E+01 9.999965242E-01 1.502650799E-07 4.396602747E-02
2.830000000E+01 9.999965487E-01 1.492050121E-07 4.381067048E-02
2.840000000E+01 9.999965730E-01 1.481561224E-07 4.365640756E-02
2.850000000E+01 9.999965970E-01 1.471182544E-07 4.350322718E-02
2.860000000E+01 9.999966207E-01 1.460912540E-07 4.335111799E-02
2.870000000E+01 9.999966442E-01 1.450749701E-07 4.320006880E-02
2.880000000E+01 9.999966675E-01 1.440692541E-07 4.305006856E-02
2.890000000E+01 9.999966905E-01 1.430739600E-07 4.290110639E-02
2.900000000E+01 9.999967133E-01 1.420889442E-07 4.275317154E-02
2.910000000E+01 9.999967392E-01 1.261942011E-07 4.260625342E-02
2.920000000E+01 9.999967617E-01 1.245971329E-07 4.246034160E-02
2.930000000E+01 9.999967839E-01 1.230238681E-07 4.231542575E-02
2.940000000E+01 9.999968059E-01 1.214739822E-07 4.217149573E-02
2.950000000E+01 9.999968277E-01 1.199470593E-07 4.202854151E-02
2.960000000E+01 9.999968492E-01 1.184426927E-07 4.188655320E-02
2.970000000E+01 9.999968706E-01 1.169604837E-07 4.174552103E-02
2.980000000E+01 9.999968917E-01 1.155000422E-07 4.160543539E-02
2.990000000E+01 9.999969126E-01 1.140609859E-07 4.146628678E-02
3.000000000E+01 9.999969333E-01 1.126429406E-07 4.132806582E-02
3.010000000E+01 9.999969538E-01 1.112455396E-07 4.119076328E-02
3.020000000E+01 9.999969741E-01 1.098684238E-07 4.105437002E-02
3.030000000E+01 9.999969942E-01 1.085112416E-07 4.091887705E-02
3.040000000E+01 9.999970140E-01 1.071736482E-07 4.078427548E-02
3.050000000E+01 9.999970337E-01 1.058553060E-07 4.065055654E-02
3.060000000E+01 9.999970532E-01 1.045558843E-07 4.051771159E-02
3.070000000E+01 9.999970725E-01 1.032750589E-07 4.038573207E-02
3.080000000E+01 9.999970916E-01 1.020125122E-07 4.025460956E-02
3.090000000E+01 9.999971106E-01 1.007679329E-07 4.012433575E-02
3.100000000E+01 9.999971293E-01 9.954101607E-08 3.999490241E-02
3.110000000E+01 9.999971478E-01 9.850134609E-08 3.986630143E-02
3.120000000E+01 9.999971661E-01 9.787093910E-08 3.973852483E-02
3.130000000E+01 9.999971842E-01 9.724656468E-08 3.961156468E-02
3.140000000E+01 9.999972021E-01 9.662814613E-08 3.948541320E-02
3.150000000E+01 9.999972198E-01 9.601560792E-08 3.936006269E-02
3.160000000E+01 9.999972374E-01 9.540887574E-08 3.923550552E-02
3.170000000E+01 9.999972548E-01 9.480787644E-08 3.911173421E-02
