# 04/03/2022 
# Density retrieved from www.chemicool.com/densities.html 
# Includes the real (n) and complex (k) part of the  refractive index. 
# Element, Te  (Z = 52) 
# Nominal density, g cm-3 =  6.24 
#    E [keV]      n       k    Wavelength [nm] 
1.000000000E+00 9.992483596E-01 5.370609349E-04 1.239841975E+00
1.100000000E+00 9.993186379E-01 4.025083223E-04 1.127129068E+00
1.200000000E+00 9.993985685E-01 3.056297720E-04 1.033201645E+00
1.300000000E+00 9.994708439E-01 2.362060229E-04 9.537245958E-01
1.400000000E+00 9.995382368E-01 1.951998733E-04 8.856014104E-01
1.500000000E+00 9.995877685E-01 1.496308679E-04 8.265613164E-01
1.600000000E+00 9.996332596E-01 1.192407769E-04 7.749012341E-01
1.700000000E+00 9.996737329E-01 1.017349397E-04 7.293188086E-01
1.800000000E+00 9.997065063E-01 8.031564390E-05 6.888010970E-01
1.900000000E+00 9.997358572E-01 6.900241747E-05 6.525484077E-01
2.000000000E+00 9.997610037E-01 5.618826648E-05 6.199209873E-01
2.100000000E+00 9.997828815E-01 4.753866247E-05 5.904009403E-01
2.200000000E+00 9.998021377E-01 4.298160710E-05 5.635645339E-01
2.300000000E+00 9.998191862E-01 3.482877896E-05 5.390617281E-01
2.400000000E+00 9.998340330E-01 3.006183834E-05 5.166008227E-01
2.500000000E+00 9.998470947E-01 2.667172319E-05 4.959367898E-01
2.600000000E+00 9.998586305E-01 2.465950738E-05 4.768622979E-01
2.700000000E+00 9.998697047E-01 1.998476193E-05 4.592007313E-01
2.800000000E+00 9.998791193E-01 1.759112217E-05 4.428007052E-01
2.900000000E+00 9.998874520E-01 1.589278175E-05 4.275317154E-01
3.000000000E+00 9.998948302E-01 1.485092162E-05 4.132806582E-01
3.100000000E+00 9.999025488E-01 1.232260696E-05 3.999490241E-01
3.200000000E+00 9.999089055E-01 1.101541448E-05 3.874506171E-01
3.300000000E+00 9.999146617E-01 9.872928169E-06 3.757096893E-01
3.400000000E+00 9.999196570E-01 9.225854192E-06 3.646594043E-01
3.500000000E+00 9.999251422E-01 8.023811573E-06 3.542405642E-01
3.600000000E+00 9.999296999E-01 7.259517475E-06 3.444005485E-01
3.700000000E+00 9.999337491E-01 6.658739141E-06 3.350924256E-01
3.800000000E+00 9.999380531E-01 5.990813984E-06 3.262742038E-01
3.900000000E+00 9.999417964E-01 5.460883020E-06 3.179081986E-01
4.000000000E+00 9.999456252E-01 4.990134271E-06 3.099604936E-01
4.100000000E+00 9.999489840E-01 4.600134098E-06 3.024004816E-01
4.200000000E+00 9.999529576E-01 4.208668625E-06 2.952004701E-01
4.300000000E+00 9.999590925E-01 4.967210232E-06 2.883353429E-01
4.400000000E+00 9.999601749E-01 1.053482686E-05 2.817822670E-01
4.500000000E+00 9.999598436E-01 1.017865622E-05 2.755204388E-01
4.600000000E+00 9.999620045E-01 1.052482927E-05 2.695308640E-01
4.700000000E+00 9.999620705E-01 1.185466658E-05 2.637961648E-01
4.800000000E+00 9.999621499E-01 1.110075953E-05 2.583004114E-01
4.900000000E+00 9.999634612E-01 1.070390763E-05 2.530289744E-01
5.000000000E+00 9.999636565E-01 1.100366002E-05 2.479683949E-01
5.100000000E+00 9.999642830E-01 1.035904282E-05 2.431062695E-01
5.200000000E+00 9.999649128E-01 9.630236387E-06 2.384311490E-01
5.300000000E+00 9.999657707E-01 9.009726610E-06 2.339324480E-01
5.400000000E+00 9.999667381E-01 8.508014653E-06 2.296003657E-01
5.500000000E+00 9.999675459E-01 7.905167127E-06 2.254258136E-01
5.600000000E+00 9.999685227E-01 7.494982851E-06 2.214003526E-01
5.700000000E+00 9.999693262E-01 6.963111955E-06 2.175161359E-01
5.800000000E+00 9.999701804E-01 6.544099539E-06 2.137658577E-01
5.900000000E+00 9.999711788E-01 6.320543628E-06 2.101427076E-01
6.000000000E+00 9.999718585E-01 5.796369670E-06 2.066403291E-01
6.100000000E+00 9.999727542E-01 5.585489531E-06 2.032527827E-01
6.200000000E+00 9.999734354E-01 5.153007890E-06 1.999745120E-01
6.300000000E+00 9.999742336E-01 4.939616419E-06 1.968003134E-01
6.400000000E+00 9.999749107E-01 4.598534831E-06 1.937253085E-01
6.500000000E+00 9.999756060E-01 4.348893981E-06 1.907449192E-01
6.600000000E+00 9.999763341E-01 4.209699093E-06 1.878548446E-01
6.700000000E+00 9.999769339E-01 3.899114093E-06 1.850510410E-01
6.800000000E+00 9.999775795E-01 3.734250479E-06 1.823297021E-01
6.900000000E+00 9.999781676E-01 3.506355653E-06 1.796872427E-01
7.000000000E+00 9.999787496E-01 3.328261597E-06 1.771202821E-01
7.100000000E+00 9.999793398E-01 3.226227579E-06 1.746256302E-01
7.200000000E+00 9.999798571E-01 3.005998131E-06 1.722002742E-01
7.300000000E+00 9.999803898E-01 2.885986520E-06 1.698413664E-01
7.400000000E+00 9.999808859E-01 2.722768226E-06 1.675462128E-01
7.500000000E+00 9.999813721E-01 2.593636094E-06 1.653122633E-01
7.600000000E+00 9.999818574E-01 2.521101842E-06 1.631371019E-01
7.700000000E+00 9.999822957E-01 2.358848489E-06 1.610184383E-01
7.800000000E+00 9.999827322E-01 2.251102866E-06 1.589540993E-01
7.900000000E+00 9.999831645E-01 2.187802797E-06 1.569420221E-01
8.000000000E+00 9.999835610E-01 2.053649184E-06 1.549802468E-01
8.100000000E+00 9.999839601E-01 1.987582365E-06 1.530669104E-01
8.200000000E+00 9.999843352E-01 1.877850350E-06 1.512002408E-01
8.300000000E+00 9.999847048E-01 1.807518124E-06 1.493785512E-01
8.400000000E+00 9.999850608E-01 1.735900138E-06 1.476002351E-01
8.500000000E+00 9.999854012E-01 1.647571887E-06 1.458637617E-01
8.600000000E+00 9.999857333E-01 1.578518392E-06 1.441676715E-01
8.700000000E+00 9.999860555E-01 1.517475546E-06 1.425105718E-01
8.800000000E+00 9.999863662E-01 1.451227716E-06 1.408911335E-01
8.900000000E+00 9.999866682E-01 1.398960440E-06 1.393080870E-01
9.000000000E+00 9.999869592E-01 1.336672556E-06 1.377602194E-01
9.100000000E+00 9.999872419E-01 1.287013393E-06 1.362463708E-01
9.200000000E+00 9.999875153E-01 1.234831897E-06 1.347654320E-01
9.300000000E+00 9.999877804E-01 1.185023569E-06 1.333163414E-01
9.400000000E+00 9.999880386E-01 1.154455443E-06 1.318980824E-01
9.500000000E+00 9.999882871E-01 1.095794300E-06 1.305096815E-01
9.600000000E+00 9.999885294E-01 1.065813334E-06 1.291502057E-01
9.700000000E+00 9.999887636E-01 1.014951491E-06 1.278187603E-01
9.800000000E+00 9.999889912E-01 9.788879122E-07 1.265144872E-01
9.900000000E+00 9.999892125E-01 9.592122752E-07 1.252365631E-01
1.000000000E+01 9.999894270E-01 9.074818030E-07 1.239841975E-01
1.010000000E+01 9.999896352E-01 8.748092237E-07 1.227566311E-01
1.020000000E+01 9.999898374E-01 8.458279531E-07 1.215531348E-01
1.030000000E+01 9.999900338E-01 8.294838368E-07 1.203730072E-01
1.040000000E+01 9.999902250E-01 7.851222985E-07 1.192155745E-01
1.050000000E+01 9.999904105E-01 7.644771006E-07 1.180801881E-01
1.060000000E+01 9.999905905E-01 7.501210425E-07 1.169662240E-01
1.070000000E+01 9.999907672E-01 7.070291943E-07 1.158730817E-01
1.080000000E+01 9.999909380E-01 6.831169652E-07 1.148001828E-01
1.090000000E+01 9.999911039E-01 6.630853267E-07 1.137469701E-01
1.100000000E+01 9.999912649E-01 6.510840303E-07 1.127129068E-01
1.110000000E+01 9.999914233E-01 6.172227744E-07 1.116974752E-01
1.120000000E+01 9.999915764E-01 5.975786439E-07 1.107001763E-01
1.130000000E+01 9.999917248E-01 5.870488299E-07 1.097205287E-01
1.140000000E+01 9.999918712E-01 5.590577211E-07 1.087580679E-01
1.150000000E+01 9.999920123E-01 5.460586501E-07 1.078123456E-01
1.160000000E+01 9.999921495E-01 5.366844268E-07 1.068829288E-01
1.170000000E+01 9.999922856E-01 5.076733260E-07 1.059693995E-01
1.180000000E+01 9.999924167E-01 4.918857435E-07 1.050713538E-01
1.190000000E+01 9.999925445E-01 4.766696619E-07 1.041884012E-01
1.200000000E+01 9.999926693E-01 4.619639924E-07 1.033201645E-01
1.210000000E+01 9.999927911E-01 4.479023589E-07 1.024662789E-01
1.220000000E+01 9.999929094E-01 4.364009839E-07 1.016263914E-01
1.230000000E+01 9.999930257E-01 4.214104514E-07 1.008001605E-01
1.240000000E+01 9.999931380E-01 4.134433910E-07 9.998725601E-02
1.250000000E+01 9.999932473E-01 4.068547571E-07 9.918735797E-02
1.260000000E+01 9.999933541E-01 4.004223721E-07 9.840015671E-02
1.270000000E+01 9.999934583E-01 3.941413342E-07 9.762535233E-02
1.280000000E+01 9.999935654E-01 3.636332975E-07 9.686265426E-02
1.290000000E+01 9.999936658E-01 3.532353619E-07 9.611178098E-02
1.300000000E+01 9.999937639E-01 3.431855415E-07 9.537245958E-02
1.310000000E+01 9.999938597E-01 3.334699545E-07 9.464442554E-02
1.320000000E+01 9.999939533E-01 3.240753664E-07 9.392742232E-02
1.330000000E+01 9.999940441E-01 3.185328054E-07 9.322120110E-02
1.340000000E+01 9.999941326E-01 3.137963241E-07 9.252552049E-02
1.350000000E+01 9.999942192E-01 3.091647075E-07 9.184014627E-02
1.360000000E+01 9.999943039E-01 3.046348830E-07 9.116485107E-02
1.370000000E+01 9.999943868E-01 3.002038891E-07 9.049941420E-02
1.380000000E+01 9.999944678E-01 2.958688718E-07 8.984362135E-02
1.390000000E+01 9.999945472E-01 2.916270791E-07 8.919726436E-02
1.400000000E+01 9.999946248E-01 2.874758569E-07 8.856014104E-02
1.410000000E+01 9.999947096E-01 2.538431644E-07 8.793205493E-02
1.420000000E+01 9.999947847E-01 2.472104723E-07 8.731281511E-02
1.430000000E+01 9.999948583E-01 2.407801734E-07 8.670223598E-02
1.440000000E+01 9.999949303E-01 2.345449133E-07 8.610013712E-02
1.450000000E+01 9.999950009E-01 2.284976500E-07 8.550634307E-02
1.460000000E+01 9.999950699E-01 2.226316388E-07 8.492068319E-02
1.470000000E+01 9.999951376E-01 2.169404181E-07 8.434299147E-02
1.480000000E+01 9.999952038E-01 2.114177953E-07 8.377310639E-02
1.490000000E+01 9.999952687E-01 2.060578344E-07 8.321087078E-02
1.500000000E+01 9.999953324E-01 2.008548435E-07 8.265613164E-02
1.510000000E+01 9.999953942E-01 1.974893955E-07 8.210874004E-02
1.520000000E+01 9.999954546E-01 1.948993987E-07 8.156855096E-02
1.530000000E+01 9.999955138E-01 1.923600200E-07 8.103542318E-02
1.540000000E+01 9.999955719E-01 1.898699489E-07 8.050921913E-02
1.550000000E+01 9.999956288E-01 1.874279171E-07 7.998980481E-02
1.560000000E+01 9.999956847E-01 1.850326967E-07 7.947704965E-02
1.570000000E+01 9.999957395E-01 1.826830990E-07 7.897082641E-02
1.580000000E+01 9.999957933E-01 1.803779726E-07 7.847101105E-02
1.590000000E+01 9.999958460E-01 1.781162022E-07 7.797748268E-02
1.600000000E+01 9.999958978E-01 1.758967073E-07 7.749012341E-02
1.610000000E+01 9.999959571E-01 1.543746003E-07 7.700881830E-02
1.620000000E+01 9.999960076E-01 1.508186452E-07 7.653345522E-02
1.630000000E+01 9.999960572E-01 1.473581348E-07 7.606392482E-02
1.640000000E+01 9.999961058E-01 1.439900183E-07 7.560012040E-02
1.650000000E+01 9.999961536E-01 1.407113592E-07 7.514193785E-02
1.660000000E+01 9.999962004E-01 1.375193300E-07 7.468927558E-02
1.670000000E+01 9.999962464E-01 1.344112081E-07 7.424203441E-02
1.680000000E+01 9.999962916E-01 1.313843705E-07 7.380011753E-02
1.690000000E+01 9.999963360E-01 1.284362904E-07 7.336343045E-02
1.700000000E+01 9.999963796E-01 1.255645327E-07 7.293188086E-02
1.710000000E+01 9.999964224E-01 1.227667505E-07 7.250537863E-02
1.720000000E+01 9.999964640E-01 1.211185000E-07 7.208383573E-02
1.730000000E+01 9.999965047E-01 1.197223330E-07 7.166716616E-02
1.740000000E+01 9.999965448E-01 1.183501686E-07 7.125528590E-02
1.750000000E+01 9.999965842E-01 1.170014597E-07 7.084811283E-02
1.760000000E+01 9.999966229E-01 1.156756748E-07 7.044556674E-02
1.770000000E+01 9.999966609E-01 1.143722973E-07 7.004756919E-02
1.780000000E+01 9.999966983E-01 1.130908251E-07 6.965404352E-02
1.790000000E+01 9.999967351E-01 1.118307700E-07 6.926491478E-02
1.800000000E+01 9.999967713E-01 1.105916575E-07 6.888010970E-02
1.810000000E+01 9.999968069E-01 1.093730259E-07 6.849955661E-02
1.820000000E+01 9.999968419E-01 1.081744265E-07 6.812318542E-02
1.830000000E+01 9.999968832E-01 9.529597301E-08 6.775092757E-02
1.840000000E+01 9.999969175E-01 9.335278152E-08 6.738271601E-02
1.850000000E+01 9.999969513E-01 9.145565633E-08 6.701848511E-02
1.860000000E+01 9.999969845E-01 8.960329714E-08 6.665817068E-02
1.870000000E+01 9.999970172E-01 8.779444656E-08 6.630170987E-02
1.880000000E+01 9.999970493E-01 8.602788859E-08 6.594904120E-02
1.890000000E+01 9.999970809E-01 8.430244694E-08 6.560010448E-02
1.900000000E+01 9.999971121E-01 8.261698364E-08 6.525484077E-02
1.910000000E+01 9.999971427E-01 8.097039755E-08 6.491319239E-02
1.920000000E+01 9.999971728E-01 7.936162300E-08 6.457510284E-02
1.930000000E+01 9.999972025E-01 7.778962850E-08 6.424051682E-02
1.940000000E+01 9.999972317E-01 7.625341544E-08 6.390938013E-02
1.950000000E+01 9.999972603E-01 7.496864810E-08 6.358163972E-02
1.960000000E+01 9.999972882E-01 7.420561339E-08 6.325724360E-02
1.970000000E+01 9.999973157E-01 7.345416898E-08 6.293614084E-02
1.980000000E+01 9.999973427E-01 7.271408132E-08 6.261828154E-02
1.990000000E+01 9.999973693E-01 7.198512270E-08 6.230361681E-02
2.000000000E+01 9.999973956E-01 7.126707110E-08 6.199209873E-02
2.010000000E+01 9.999974214E-01 7.055971001E-08 6.168368033E-02
2.020000000E+01 9.999974469E-01 6.986282825E-08 6.137831557E-02
2.030000000E+01 9.999974720E-01 6.917621985E-08 6.107595934E-02
2.040000000E+01 9.999974967E-01 6.849968387E-08 6.077656738E-02
2.050000000E+01 9.999975211E-01 6.783302425E-08 6.048009632E-02
2.060000000E+01 9.999975451E-01 6.717604967E-08 6.018650362E-02
2.070000000E+01 9.999975746E-01 5.978071651E-08 5.989574756E-02
2.080000000E+01 9.999975983E-01 5.869874439E-08 5.960778724E-02
2.090000000E+01 9.999976217E-01 5.763951313E-08 5.932258252E-02
2.100000000E+01 9.999976447E-01 5.660245354E-08 5.904009403E-02
2.110000000E+01 9.999976674E-01 5.558701312E-08 5.876028316E-02
2.120000000E+01 9.999976898E-01 5.459265548E-08 5.848311201E-02
2.130000000E+01 9.999977118E-01 5.361885981E-08 5.820854341E-02
2.140000000E+01 9.999977336E-01 5.266512036E-08 5.793654087E-02
2.150000000E+01 9.999977550E-01 5.173094593E-08 5.766706859E-02
2.160000000E+01 9.999977761E-01 5.081585943E-08 5.740009142E-02
2.170000000E+01 9.999977969E-01 4.991939734E-08 5.713557487E-02
2.180000000E+01 9.999978175E-01 4.904110934E-08 5.687348507E-02
2.190000000E+01 9.999978377E-01 4.818055783E-08 5.661378879E-02
2.200000000E+01 9.999978577E-01 4.733731755E-08 5.635645339E-02
2.210000000E+01 9.999978773E-01 4.658510929E-08 5.610144681E-02
2.220000000E+01 9.999978964E-01 4.616636885E-08 5.584873759E-02
2.230000000E+01 9.999979152E-01 4.575324906E-08 5.559829482E-02
2.240000000E+01 9.999979338E-01 4.534564976E-08 5.535008815E-02
2.250000000E+01 9.999979521E-01 4.494347304E-08 5.510408776E-02
2.260000000E+01 9.999979702E-01 4.454662312E-08 5.486026436E-02
2.270000000E+01 9.999979880E-01 4.415500636E-08 5.461858919E-02
2.280000000E+01 9.999980056E-01 4.376853114E-08 5.437903397E-02
2.290000000E+01 9.999980230E-01 4.338710785E-08 5.414157094E-02
2.300000000E+01 9.999980402E-01 4.301064882E-08 5.390617281E-02
2.310000000E+01 9.999980571E-01 4.263906828E-08 5.367281275E-02
2.320000000E+01 9.999980738E-01 4.227228230E-08 5.344146442E-02
2.330000000E+01 9.999980903E-01 4.191020875E-08 5.321210191E-02
2.340000000E+01 9.999981066E-01 4.155276723E-08 5.298469977E-02
2.350000000E+01 9.999981287E-01 3.693181938E-08 5.275923296E-02
2.360000000E+01 9.999981450E-01 3.634038815E-08 5.253567689E-02
2.370000000E+01 9.999981610E-01 3.575993835E-08 5.231400737E-02
2.380000000E+01 9.999981768E-01 3.519022716E-08 5.209420061E-02
2.390000000E+01 9.999981924E-01 3.463101807E-08 5.187623325E-02
2.400000000E+01 9.999982078E-01 3.408208067E-08 5.166008227E-02
2.410000000E+01 9.999982230E-01 3.354319045E-08 5.144572509E-02
2.420000000E+01 9.999982380E-01 3.301412866E-08 5.123313945E-02
2.430000000E+01 9.999982528E-01 3.249468212E-08 5.102230348E-02
2.440000000E+01 9.999982675E-01 3.198464308E-08 5.081319568E-02
2.450000000E+01 9.999982819E-01 3.148380901E-08 5.060579488E-02
2.460000000E+01 9.999982962E-01 3.099198253E-08 5.040008027E-02
2.470000000E+01 9.999983103E-01 3.050897116E-08 5.019603136E-02
2.480000000E+01 9.999983242E-01 3.003458728E-08 4.999362801E-02
2.490000000E+01 9.999983380E-01 2.956864791E-08 4.979285038E-02
2.500000000E+01 9.999983516E-01 2.911097462E-08 4.959367898E-02
2.510000000E+01 9.999983650E-01 2.866139341E-08 4.939609460E-02
2.520000000E+01 9.999983780E-01 2.841617017E-08 4.920007836E-02
2.530000000E+01 9.999983908E-01 2.819198035E-08 4.900561164E-02
2.540000000E+01 9.999984034E-01 2.797043323E-08 4.881267616E-02
2.550000000E+01 9.999984159E-01 2.775148744E-08 4.862125391E-02
2.560000000E+01 9.999984283E-01 2.753510239E-08 4.843132713E-02
2.570000000E+01 9.999984405E-01 2.732123833E-08 4.824287839E-02
2.580000000E+01 9.999984525E-01 2.710985624E-08 4.805589049E-02
2.590000000E+01 9.999984645E-01 2.690091785E-08 4.787034651E-02
2.600000000E+01 9.999984763E-01 2.669438566E-08 4.768622979E-02
2.610000000E+01 9.999984879E-01 2.649022285E-08 4.750352393E-02
2.620000000E+01 9.999985043E-01 2.436917648E-08 4.732221277E-02
2.630000000E+01 9.999985161E-01 2.401762695E-08 4.714228040E-02
2.640000000E+01 9.999985277E-01 2.367194701E-08 4.696371116E-02
2.650000000E+01 9.999985392E-01 2.333201996E-08 4.678648961E-02
2.660000000E+01 9.999985506E-01 2.299773186E-08 4.661060055E-02
2.670000000E+01 9.999985618E-01 2.266897138E-08 4.643602901E-02
2.680000000E+01 9.999985729E-01 2.234562977E-08 4.626276025E-02
2.690000000E+01 9.999985839E-01 2.202760080E-08 4.609077972E-02
2.700000000E+01 9.999985947E-01 2.171478066E-08 4.592007313E-02
2.710000000E+01 9.999986055E-01 2.140706792E-08 4.575062637E-02
2.720000000E+01 9.999986161E-01 2.110436348E-08 4.558242554E-02
2.730000000E+01 9.999986263E-01 2.090987175E-08 4.541545694E-02
2.740000000E+01 9.999986363E-01 2.075752347E-08 4.524970710E-02
2.750000000E+01 9.999986462E-01 2.060683414E-08 4.508516271E-02
2.760000000E+01 9.999986560E-01 2.045777977E-08 4.492181067E-02
2.770000000E+01 9.999986657E-01 2.031033679E-08 4.475963807E-02
2.780000000E+01 9.999986753E-01 2.016448206E-08 4.459863218E-02
2.790000000E+01 9.999986847E-01 2.002019285E-08 4.443878045E-02
2.800000000E+01 9.999986984E-01 1.890040931E-08 4.428007052E-02
2.810000000E+01 9.999987082E-01 1.864437827E-08 4.412249020E-02
2.820000000E+01 9.999987179E-01 1.839235444E-08 4.396602747E-02
2.830000000E+01 9.999987275E-01 1.814426318E-08 4.381067048E-02
2.840000000E+01 9.999987369E-01 1.790003146E-08 4.365640756E-02
2.850000000E+01 9.999987463E-01 1.765958784E-08 4.350322718E-02
2.860000000E+01 9.999987556E-01 1.742286245E-08 4.335111799E-02
2.870000000E+01 9.999987647E-01 1.718978690E-08 4.320006880E-02
2.880000000E+01 9.999987735E-01 1.702421980E-08 4.305006856E-02
2.890000000E+01 9.999987820E-01 1.690660897E-08 4.290110639E-02
2.900000000E+01 9.999987903E-01 1.679021269E-08 4.275317154E-02
2.910000000E+01 9.999987986E-01 1.667501432E-08 4.260625342E-02
2.920000000E+01 9.999988069E-01 1.656099746E-08 4.246034160E-02
2.930000000E+01 9.999988194E-01 1.588378764E-08 4.231542575E-02
2.940000000E+01 9.999988281E-01 1.567771884E-08 4.217149573E-02
2.950000000E+01 9.999988368E-01 1.547473568E-08 4.202854151E-02
2.960000000E+01 9.999988454E-01 1.527478316E-08 4.188655320E-02
2.970000000E+01 9.999988539E-01 1.507780745E-08 4.174552103E-02
2.980000000E+01 9.999988622E-01 1.488931186E-08 4.160543539E-02
2.990000000E+01 9.999988698E-01 1.478988435E-08 4.146628678E-02
3.000000000E+01 9.999988774E-01 1.469144945E-08 4.132806582E-02
3.010000000E+01 9.999988848E-01 1.459399400E-08 4.119076328E-02
3.020000000E+01 9.999988969E-01 1.414330171E-08 4.105437002E-02
3.030000000E+01 9.999989053E-01 1.396487881E-08 4.091887705E-02
3.040000000E+01 9.999989136E-01 1.378905063E-08 4.078427548E-02
3.050000000E+01 9.999989213E-01 1.365435979E-08 4.065055654E-02
3.060000000E+01 9.999989283E-01 1.356526143E-08 4.051771159E-02
3.070000000E+01 9.999989397E-01 1.329227342E-08 4.038573207E-02
3.080000000E+01 9.999989483E-01 1.313249161E-08 4.025460956E-02
3.090000000E+01 9.999989568E-01 1.297496976E-08 4.012433575E-02
3.100000000E+01 9.999989637E-01 1.288395270E-08 3.999490241E-02
3.110000000E+01 9.999989756E-01 1.291914452E-08 3.986630143E-02
3.120000000E+01 9.999989856E-01 1.326875251E-08 3.973852483E-02
3.130000000E+01 9.999989944E-01 1.354431068E-08 3.961156468E-02
3.140000000E+01 9.999990075E-01 1.610663842E-08 3.948541320E-02
3.150000000E+01 9.999990189E-01 1.957872310E-08 3.936006269E-02
3.160000000E+01 9.999990298E-01 2.494601743E-08 3.923550552E-02
3.170000000E+01 9.999990389E-01 3.224475664E-08 3.911173421E-02
