# 04/03/2022 
# Density retrieved from www.chemicool.com/densities.html 
# Includes the real (n) and complex (k) part of the  refractive index. 
# Element, Th  (Z = 90) 
# Nominal density, g cm-3 =  19.9 
#    E [keV]      n       k    Wavelength [nm] 
1.000000000E+00 9.980926286E-01 1.291699837E-03 1.239841975E+00
1.100000000E+00 9.983086848E-01 9.905350634E-04 1.127129068E+00
1.200000000E+00 9.985151549E-01 7.758612423E-04 1.033201645E+00
1.300000000E+00 9.986966084E-01 6.247730739E-04 9.537245958E-01
1.400000000E+00 9.988483335E-01 5.182901416E-04 8.856014104E-01
1.500000000E+00 9.989689720E-01 4.114877164E-04 8.265613164E-01
1.600000000E+00 9.990798827E-01 3.415998407E-04 7.749012341E-01
1.700000000E+00 9.991849480E-01 3.025936305E-04 7.293188086E-01
1.800000000E+00 9.992596077E-01 2.356000618E-04 6.888010970E-01
1.900000000E+00 9.993310580E-01 2.000871631E-04 6.525484077E-01
2.000000000E+00 9.993962798E-01 1.805786647E-04 6.199209873E-01
2.100000000E+00 9.994515447E-01 1.454702026E-04 5.904009403E-01
2.200000000E+00 9.994999434E-01 1.255924817E-04 5.635645339E-01
2.300000000E+00 9.995422684E-01 1.103920337E-04 5.390617281E-01
2.400000000E+00 9.995796180E-01 1.013843504E-04 5.166008227E-01
2.500000000E+00 9.996175345E-01 8.352686672E-05 4.959367898E-01
2.600000000E+00 9.996481894E-01 7.362781663E-05 4.768622979E-01
2.700000000E+00 9.996747175E-01 6.637505152E-05 4.592007313E-01
2.800000000E+00 9.997035790E-01 5.793898773E-05 4.428007052E-01
2.900000000E+00 9.997273766E-01 5.169296651E-05 4.275317154E-01
3.000000000E+00 9.997469847E-01 4.721818381E-05 4.132806582E-01
3.100000000E+00 9.997730239E-01 4.157161081E-05 3.999490241E-01
3.200000000E+00 9.997976403E-01 3.746143852E-05 3.874506171E-01
3.300000000E+00 9.998320554E-01 3.699841410E-05 3.757096893E-01
3.400000000E+00 9.998417412E-01 7.411481497E-05 3.646594043E-01
3.500000000E+00 9.998472228E-01 8.144958557E-05 3.542405642E-01
3.600000000E+00 9.998340553E-01 8.816272958E-05 3.444005485E-01
3.700000000E+00 9.998340041E-01 8.098110553E-05 3.350924256E-01
3.800000000E+00 9.998355161E-01 7.355221750E-05 3.262742038E-01
3.900000000E+00 9.998396646E-01 6.634830310E-05 3.179081986E-01
4.000000000E+00 9.998477552E-01 6.154844624E-05 3.099604936E-01
4.100000000E+00 9.998533469E-01 6.415874376E-05 3.024004816E-01
4.200000000E+00 9.998550450E-01 6.066437982E-05 2.952004701E-01
4.300000000E+00 9.998567889E-01 5.511066882E-05 2.883353429E-01
4.400000000E+00 9.998610405E-01 5.070552512E-05 2.817822670E-01
4.500000000E+00 9.998654078E-01 4.694041142E-05 2.755204388E-01
4.600000000E+00 9.998701939E-01 4.338809842E-05 2.695308640E-01
4.700000000E+00 9.998747857E-01 4.022529814E-05 2.637961648E-01
4.800000000E+00 9.998801026E-01 3.795289988E-05 2.583004114E-01
4.900000000E+00 9.998843019E-01 3.687948966E-05 2.530289744E-01
5.000000000E+00 9.998872688E-01 3.464683443E-05 2.479683949E-01
5.100000000E+00 9.998910684E-01 3.231682649E-05 2.431062695E-01
5.200000000E+00 9.998947328E-01 3.116241111E-05 2.384311490E-01
5.300000000E+00 9.998973887E-01 2.936316742E-05 2.339324480E-01
5.400000000E+00 9.999009121E-01 2.816578051E-05 2.296003657E-01
5.500000000E+00 9.999034256E-01 2.591505517E-05 2.254258136E-01
5.600000000E+00 9.999063720E-01 2.444611433E-05 2.214003526E-01
5.700000000E+00 9.999096284E-01 2.359588013E-05 2.175161359E-01
5.800000000E+00 9.999119763E-01 2.159555661E-05 2.137658577E-01
5.900000000E+00 9.999146178E-01 2.035924982E-05 2.101427076E-01
6.000000000E+00 9.999172602E-01 1.939658077E-05 2.066403291E-01
6.100000000E+00 9.999199508E-01 1.876584003E-05 2.032527827E-01
6.200000000E+00 9.999220433E-01 1.715912387E-05 1.999745120E-01
6.300000000E+00 9.999243193E-01 1.623404228E-05 1.968003134E-01
6.400000000E+00 9.999265012E-01 1.537743112E-05 1.937253085E-01
6.500000000E+00 9.999287453E-01 1.490791902E-05 1.907449192E-01
6.600000000E+00 9.999308882E-01 1.445958629E-05 1.878548446E-01
6.700000000E+00 9.999326234E-01 1.311635994E-05 1.850510410E-01
6.800000000E+00 9.999344961E-01 1.245692535E-05 1.823297021E-01
6.900000000E+00 9.999362920E-01 1.183771568E-05 1.796872427E-01
7.000000000E+00 9.999380340E-01 1.131107499E-05 1.771202821E-01
7.100000000E+00 9.999397673E-01 1.099469698E-05 1.746256302E-01
7.200000000E+00 9.999414288E-01 1.069140962E-05 1.722002742E-01
7.300000000E+00 9.999430225E-01 1.040050056E-05 1.698413664E-01
7.400000000E+00 9.999443664E-01 9.272401917E-06 1.675462128E-01
7.500000000E+00 9.999458004E-01 8.844909198E-06 1.653122633E-01
7.600000000E+00 9.999471796E-01 8.441218521E-06 1.631371019E-01
7.700000000E+00 9.999485228E-01 8.132676527E-06 1.610184383E-01
7.800000000E+00 9.999498343E-01 7.925483092E-06 1.589540993E-01
7.900000000E+00 9.999510963E-01 7.726107856E-06 1.569420221E-01
8.000000000E+00 9.999523112E-01 7.534162364E-06 1.549802468E-01
8.100000000E+00 9.999534814E-01 7.349281989E-06 1.530669104E-01
8.200000000E+00 9.999545463E-01 6.475839579E-06 1.512002408E-01
8.300000000E+00 9.999556246E-01 6.205867576E-06 1.493785512E-01
8.400000000E+00 9.999566650E-01 5.949509520E-06 1.476002351E-01
8.500000000E+00 9.999576692E-01 5.705942239E-06 1.458637617E-01
8.600000000E+00 9.999586389E-01 5.474400782E-06 1.441676715E-01
8.700000000E+00 9.999595777E-01 5.276624587E-06 1.425105718E-01
8.800000000E+00 9.999604912E-01 5.157382683E-06 1.408911335E-01
8.900000000E+00 9.999613740E-01 5.042137546E-06 1.393080870E-01
9.000000000E+00 9.999622276E-01 4.930712531E-06 1.377602194E-01
9.100000000E+00 9.999630532E-01 4.822940647E-06 1.362463708E-01
9.200000000E+00 9.999638520E-01 4.718663929E-06 1.347654320E-01
9.300000000E+00 9.999646496E-01 4.157058123E-06 1.333163414E-01
9.400000000E+00 9.999654013E-01 4.002361661E-06 1.318980824E-01
9.500000000E+00 9.999661292E-01 3.854598415E-06 1.305096815E-01
9.600000000E+00 9.999668344E-01 3.713395944E-06 1.291502057E-01
9.700000000E+00 9.999675178E-01 3.578405225E-06 1.278187603E-01
9.800000000E+00 9.999681803E-01 3.449298963E-06 1.265144872E-01
9.900000000E+00 9.999688211E-01 3.357693397E-06 1.252365631E-01
1.000000000E+01 9.999694415E-01 3.290875298E-06 1.239841975E-01
1.010000000E+01 9.999700437E-01 3.226032054E-06 1.227566311E-01
1.020000000E+01 9.999706282E-01 3.163086600E-06 1.215531348E-01
1.030000000E+01 9.999711957E-01 3.101965594E-06 1.203730072E-01
1.040000000E+01 9.999717470E-01 3.042599203E-06 1.192155745E-01
1.050000000E+01 9.999722826E-01 2.984920906E-06 1.180801881E-01
1.060000000E+01 9.999728762E-01 2.616146091E-06 1.169662240E-01
1.070000000E+01 9.999733895E-01 2.530293358E-06 1.158730817E-01
1.080000000E+01 9.999738884E-01 2.447832901E-06 1.148001828E-01
1.090000000E+01 9.999743734E-01 2.368603940E-06 1.137469701E-01
1.100000000E+01 9.999748450E-01 2.292454624E-06 1.127129068E-01
1.110000000E+01 9.999753037E-01 2.219241461E-06 1.116974752E-01
1.120000000E+01 9.999757500E-01 2.148828788E-06 1.107001763E-01
1.130000000E+01 9.999761843E-01 2.081088286E-06 1.097205287E-01
1.140000000E+01 9.999766064E-01 2.018591993E-06 1.087580679E-01
1.150000000E+01 9.999770114E-01 1.983638680E-06 1.078123456E-01
1.160000000E+01 9.999774061E-01 1.949585430E-06 1.068829288E-01
1.170000000E+01 9.999777907E-01 1.916401603E-06 1.059693995E-01
1.180000000E+01 9.999781655E-01 1.884057853E-06 1.050713538E-01
1.190000000E+01 9.999785309E-01 1.852526061E-06 1.041884012E-01
1.200000000E+01 9.999788872E-01 1.821779274E-06 1.033201645E-01
1.210000000E+01 9.999792348E-01 1.791791650E-06 1.024662789E-01
1.220000000E+01 9.999796702E-01 1.585858439E-06 1.016263914E-01
1.230000000E+01 9.999800102E-01 1.540290060E-06 1.008001605E-01
1.240000000E+01 9.999803418E-01 1.496295028E-06 9.998725601E-02
1.250000000E+01 9.999806653E-01 1.453808170E-06 9.918735797E-02
1.260000000E+01 9.999809808E-01 1.412767475E-06 9.840015671E-02
1.270000000E+01 9.999812887E-01 1.373113924E-06 9.762535233E-02
1.280000000E+01 9.999815892E-01 1.334791321E-06 9.686265426E-02
1.290000000E+01 9.999818825E-01 1.297746137E-06 9.611178098E-02
1.300000000E+01 9.999821688E-01 1.261927367E-06 9.537245958E-02
1.310000000E+01 9.999824427E-01 1.237743666E-06 9.464442554E-02
1.320000000E+01 9.999827077E-01 1.219061010E-06 9.392742232E-02
1.330000000E+01 9.999829668E-01 1.200798182E-06 9.322120110E-02
1.340000000E+01 9.999832201E-01 1.182942696E-06 9.252552049E-02
1.350000000E+01 9.999834677E-01 1.165482527E-06 9.184014627E-02
1.360000000E+01 9.999837100E-01 1.148406090E-06 9.116485107E-02
1.370000000E+01 9.999840437E-01 1.046643756E-06 9.049941420E-02
1.380000000E+01 9.999842876E-01 1.019676303E-06 8.984362135E-02
1.390000000E+01 9.999845260E-01 9.935418683E-07 8.919726436E-02
1.400000000E+01 9.999847590E-01 9.682095835E-07 8.856014104E-02
1.410000000E+01 9.999849868E-01 9.436499211E-07 8.793205493E-02
1.420000000E+01 9.999852096E-01 9.198346285E-07 8.731281511E-02
1.430000000E+01 9.999854274E-01 8.967366646E-07 8.670223598E-02
1.440000000E+01 9.999856322E-01 8.815541465E-07 8.610013712E-02
1.450000000E+01 9.999858297E-01 8.694367078E-07 8.550634307E-02
1.460000000E+01 9.999860232E-01 8.575674039E-07 8.492068319E-02
1.470000000E+01 9.999862127E-01 8.459395058E-07 8.434299147E-02
1.480000000E+01 9.999864934E-01 7.929017217E-07 8.377310639E-02
1.490000000E+01 9.999866932E-01 7.739312182E-07 8.321087078E-02
1.500000000E+01 9.999868886E-01 7.555044565E-07 8.265613164E-02
1.510000000E+01 9.999870798E-01 7.376027372E-07 8.210874004E-02
1.520000000E+01 9.999872596E-01 7.233990502E-07 8.156855096E-02
1.530000000E+01 9.999874256E-01 7.139737561E-07 8.103542318E-02
1.540000000E+01 9.999875884E-01 7.047314748E-07 8.050921913E-02
1.550000000E+01 9.999878557E-01 6.714102753E-07 7.998980481E-02
1.560000000E+01 9.999880412E-01 6.560158642E-07 7.947704965E-02
1.570000000E+01 9.999882129E-01 6.432042141E-07 7.897082641E-02
1.580000000E+01 9.999884375E-01 6.276062143E-07 7.847101105E-02
1.590000000E+01 9.999886381E-01 6.142492975E-07 7.797748268E-02
1.600000000E+01 9.999888647E-01 6.118105659E-07 7.749012341E-02
1.610000000E+01 9.999891162E-01 6.353395051E-07 7.700881830E-02
1.620000000E+01 9.999893713E-01 7.167397815E-07 7.653345522E-02
1.630000000E+01 9.999895766E-01 8.692691038E-07 7.606392482E-02
1.640000000E+01 9.999896754E-01 1.075230437E-06 7.560012040E-02
1.650000000E+01 9.999896902E-01 1.195260843E-06 7.514193785E-02
1.660000000E+01 9.999896666E-01 1.241789120E-06 7.468927558E-02
1.670000000E+01 9.999897008E-01 1.227168362E-06 7.424203441E-02
1.680000000E+01 9.999897945E-01 1.212668676E-06 7.380011753E-02
1.690000000E+01 9.999898337E-01 1.180562749E-06 7.336343045E-02
1.700000000E+01 9.999899134E-01 1.158064197E-06 7.293188086E-02
1.710000000E+01 9.999900310E-01 1.144559191E-06 7.250537863E-02
1.720000000E+01 9.999900922E-01 1.107499310E-06 7.208383573E-02
1.730000000E+01 9.999901821E-01 1.084096023E-06 7.166716616E-02
1.740000000E+01 9.999902709E-01 1.061276899E-06 7.125528590E-02
1.750000000E+01 9.999903816E-01 1.049132707E-06 7.084811283E-02
1.760000000E+01 9.999904906E-01 1.037244614E-06 7.044556674E-02
1.770000000E+01 9.999905641E-01 9.966002480E-07 7.004756919E-02
1.780000000E+01 9.999906589E-01 9.760886772E-07 6.965404352E-02
1.790000000E+01 9.999907524E-01 9.560752303E-07 6.926491478E-02
1.800000000E+01 9.999908455E-01 9.374960738E-07 6.888010970E-02
1.810000000E+01 9.999909464E-01 9.271656174E-07 6.849955661E-02
1.820000000E+01 9.999910456E-01 9.170049750E-07 6.812318542E-02
1.830000000E+01 9.999911432E-01 9.070104449E-07 6.775092757E-02
1.840000000E+01 9.999912305E-01 8.638449168E-07 6.738271601E-02
1.850000000E+01 9.999913230E-01 8.467239939E-07 6.701848511E-02
1.860000000E+01 9.999914140E-01 8.300033833E-07 6.665817068E-02
1.870000000E+01 9.999915039E-01 8.146519984E-07 6.630170987E-02
1.880000000E+01 9.999915941E-01 8.060085370E-07 6.594904120E-02
1.890000000E+01 9.999916828E-01 7.975019101E-07 6.560010448E-02
1.900000000E+01 9.999917914E-01 7.670252083E-07 6.525484077E-02
1.910000000E+01 9.999918837E-01 7.521811396E-07 6.491319239E-02
1.920000000E+01 9.999919744E-01 7.376743451E-07 6.457510284E-02
1.930000000E+01 9.999920578E-01 7.295855328E-07 6.424051682E-02
1.940000000E+01 9.999921830E-01 7.159751641E-07 6.390938013E-02
1.950000000E+01 9.999922786E-01 7.064543239E-07 6.358163972E-02
1.960000000E+01 9.999924041E-01 7.249850174E-07 6.325724360E-02
1.970000000E+01 9.999924921E-01 7.237274425E-07 6.293614084E-02
1.980000000E+01 9.999925950E-01 7.915814806E-07 6.261828154E-02
1.990000000E+01 9.999926478E-01 8.422621721E-07 6.230361681E-02
2.000000000E+01 9.999927153E-01 8.500910971E-07 6.199209873E-02
2.010000000E+01 9.999927409E-01 8.655741691E-07 6.168368033E-02
2.020000000E+01 9.999927937E-01 8.666975491E-07 6.137831557E-02
2.030000000E+01 9.999928645E-01 8.581796887E-07 6.107595934E-02
2.040000000E+01 9.999929139E-01 8.774741260E-07 6.077656738E-02
2.050000000E+01 9.999929799E-01 8.730277902E-07 6.048009632E-02
2.060000000E+01 9.999930088E-01 8.951650908E-07 6.018650362E-02
2.070000000E+01 9.999930619E-01 8.977959661E-07 5.989574756E-02
2.080000000E+01 9.999931284E-01 8.891840642E-07 5.960778724E-02
2.090000000E+01 9.999931330E-01 8.789784029E-07 5.932258252E-02
2.100000000E+01 9.999931786E-01 8.700752388E-07 5.904009403E-02
2.110000000E+01 9.999932431E-01 8.618476232E-07 5.876028316E-02
2.120000000E+01 9.999932742E-01 8.402713063E-07 5.848311201E-02
2.130000000E+01 9.999933229E-01 8.264712835E-07 5.820854341E-02
2.140000000E+01 9.999933711E-01 8.129467977E-07 5.793654087E-02
2.150000000E+01 9.999934318E-01 8.050507805E-07 5.766706859E-02
2.160000000E+01 9.999934925E-01 7.976138617E-07 5.740009142E-02
2.170000000E+01 9.999935523E-01 7.902795203E-07 5.713557487E-02
2.180000000E+01 9.999935758E-01 7.617545809E-07 5.687348507E-02
2.190000000E+01 9.999936256E-01 7.495782536E-07 5.661378879E-02
2.200000000E+01 9.999936748E-01 7.376384977E-07 5.635645339E-02
2.210000000E+01 9.999937262E-01 7.275378934E-07 5.610144681E-02
2.220000000E+01 9.999937826E-01 7.209982601E-07 5.584873759E-02
2.230000000E+01 9.999938382E-01 7.145464065E-07 5.559829482E-02
2.240000000E+01 9.999938931E-01 7.081807687E-07 5.535008815E-02
2.250000000E+01 9.999939222E-01 6.815875971E-07 5.510408776E-02
2.260000000E+01 9.999939702E-01 6.710180066E-07 5.486026436E-02
2.270000000E+01 9.999940177E-01 6.606475456E-07 5.461858919E-02
2.280000000E+01 9.999940646E-01 6.504716870E-07 5.437903397E-02
2.290000000E+01 9.999941110E-01 6.404860247E-07 5.414157094E-02
2.300000000E+01 9.999941598E-01 6.331221305E-07 5.390617281E-02
2.310000000E+01 9.999942103E-01 6.276524185E-07 5.367281275E-02
2.320000000E+01 9.999942601E-01 6.222532830E-07 5.344146442E-02
2.330000000E+01 9.999943093E-01 6.169235150E-07 5.321210191E-02
2.340000000E+01 9.999943578E-01 6.116619312E-07 5.298469977E-02
2.350000000E+01 9.999943845E-01 5.842848182E-07 5.275923296E-02
2.360000000E+01 9.999944283E-01 5.755085376E-07 5.253567689E-02
2.370000000E+01 9.999944716E-01 5.668913550E-07 5.231400737E-02
2.380000000E+01 9.999945144E-01 5.584297962E-07 5.209420061E-02
2.390000000E+01 9.999945573E-01 5.507414750E-07 5.187623325E-02
2.400000000E+01 9.999946026E-01 5.461615242E-07 5.166008227E-02
2.410000000E+01 9.999946473E-01 5.416384669E-07 5.144572509E-02
2.420000000E+01 9.999946914E-01 5.371713646E-07 5.123313945E-02
2.430000000E+01 9.999947350E-01 5.327592981E-07 5.102230348E-02
2.440000000E+01 9.999947781E-01 5.284013672E-07 5.081319568E-02
2.450000000E+01 9.999948054E-01 5.037797246E-07 5.060579488E-02
2.460000000E+01 9.999948452E-01 4.965218113E-07 5.040008027E-02
2.470000000E+01 9.999948845E-01 4.893901465E-07 5.019603136E-02
2.480000000E+01 9.999949234E-01 4.823820845E-07 4.999362801E-02
2.490000000E+01 9.999949618E-01 4.754950448E-07 4.979285038E-02
2.500000000E+01 9.999949998E-01 4.687265104E-07 4.959367898E-02
2.510000000E+01 9.999950374E-01 4.620740257E-07 4.939609460E-02
2.520000000E+01 9.999950765E-01 4.580890283E-07 4.920007836E-02
2.530000000E+01 9.999951153E-01 4.544749278E-07 4.900561164E-02
2.540000000E+01 9.999951537E-01 4.509034294E-07 4.881267616E-02
2.550000000E+01 9.999951916E-01 4.473738662E-07 4.862125391E-02
2.560000000E+01 9.999952291E-01 4.438855843E-07 4.843132713E-02
2.570000000E+01 9.999952662E-01 4.404379423E-07 4.824287839E-02
2.580000000E+01 9.999952922E-01 4.189977794E-07 4.805589049E-02
2.590000000E+01 9.999953270E-01 4.132496637E-07 4.787034651E-02
2.600000000E+01 9.999953614E-01 4.075966412E-07 4.768622979E-02
2.610000000E+01 9.999953954E-01 4.020368170E-07 4.750352393E-02
2.620000000E+01 9.999954291E-01 3.965683406E-07 4.732221277E-02
2.630000000E+01 9.999954624E-01 3.911894049E-07 4.714228040E-02
2.640000000E+01 9.999954953E-01 3.858982447E-07 4.696371116E-02
2.650000000E+01 9.999955283E-01 3.813441366E-07 4.678648961E-02
2.660000000E+01 9.999955618E-01 3.784822770E-07 4.661060055E-02
2.670000000E+01 9.999955950E-01 3.756525129E-07 4.643602901E-02
2.680000000E+01 9.999956278E-01 3.728543661E-07 4.626276025E-02
2.690000000E+01 9.999956603E-01 3.700873674E-07 4.609077972E-02
2.700000000E+01 9.999956924E-01 3.673510561E-07 4.592007313E-02
2.710000000E+01 9.999957241E-01 3.646449802E-07 4.575062637E-02
2.720000000E+01 9.999957555E-01 3.619686958E-07 4.558242554E-02
2.730000000E+01 9.999957788E-01 3.424371286E-07 4.541545694E-02
2.740000000E+01 9.999958086E-01 3.379873438E-07 4.524970710E-02
2.750000000E+01 9.999958382E-01 3.336072229E-07 4.508516271E-02
2.760000000E+01 9.999958674E-01 3.292954523E-07 4.492181067E-02
2.770000000E+01 9.999958963E-01 3.250507476E-07 4.475963807E-02
2.780000000E+01 9.999959249E-01 3.208718531E-07 4.459863218E-02
2.790000000E+01 9.999959533E-01 3.167575403E-07 4.443878045E-02
2.800000000E+01 9.999959813E-01 3.127066080E-07 4.428007052E-02
2.810000000E+01 9.999960090E-01 3.087178813E-07 4.412249020E-02
2.820000000E+01 9.999960371E-01 3.062203744E-07 4.396602747E-02
2.830000000E+01 9.999960651E-01 3.040600963E-07 4.381067048E-02
2.840000000E+01 9.999960928E-01 3.019225979E-07 4.365640756E-02
2.850000000E+01 9.999961201E-01 2.998075599E-07 4.350322718E-02
2.860000000E+01 9.999961472E-01 2.977146689E-07 4.335111799E-02
2.870000000E+01 9.999961740E-01 2.956436166E-07 4.320006880E-02
2.880000000E+01 9.999962005E-01 2.935941003E-07 4.305006856E-02
2.890000000E+01 9.999962268E-01 2.915658224E-07 4.290110639E-02
2.900000000E+01 9.999962478E-01 2.757988751E-07 4.275317154E-02
2.910000000E+01 9.999962731E-01 2.724098064E-07 4.260625342E-02
2.920000000E+01 9.999962980E-01 2.690707965E-07 4.246034160E-02
2.930000000E+01 9.999963227E-01 2.657809553E-07 4.231542575E-02
2.940000000E+01 9.999963472E-01 2.625394115E-07 4.217149573E-02
2.950000000E+01 9.999963714E-01 2.593453118E-07 4.202854151E-02
2.960000000E+01 9.999963954E-01 2.561978207E-07 4.188655320E-02
2.970000000E+01 9.999964191E-01 2.530961202E-07 4.174552103E-02
2.980000000E+01 9.999964426E-01 2.500394088E-07 4.160543539E-02
2.990000000E+01 9.999964660E-01 2.473616060E-07 4.146628678E-02
3.000000000E+01 9.999964895E-01 2.457152771E-07 4.132806582E-02
3.010000000E+01 9.999965128E-01 2.440853295E-07 4.119076328E-02
3.020000000E+01 9.999965359E-01 2.424715466E-07 4.105437002E-02
3.030000000E+01 9.999965587E-01 2.408737154E-07 4.091887705E-02
3.040000000E+01 9.999965813E-01 2.392916263E-07 4.078427548E-02
3.050000000E+01 9.999966037E-01 2.377250732E-07 4.065055654E-02
3.060000000E+01 9.999966258E-01 2.361738534E-07 4.051771159E-02
3.070000000E+01 9.999966478E-01 2.346377674E-07 4.038573207E-02
3.080000000E+01 9.999966695E-01 2.331166189E-07 4.025460956E-02
3.090000000E+01 9.999966879E-01 2.195063047E-07 4.012433575E-02
3.100000000E+01 9.999967089E-01 2.169617212E-07 3.999490241E-02
3.110000000E+01 9.999967298E-01 2.144524985E-07 3.986630143E-02
3.120000000E+01 9.999967504E-01 2.119780455E-07 3.973852483E-02
3.130000000E+01 9.999967709E-01 2.095377829E-07 3.961156468E-02
3.140000000E+01 9.999967911E-01 2.071311424E-07 3.948541320E-02
3.150000000E+01 9.999968112E-01 2.047575671E-07 3.936006269E-02
3.160000000E+01 9.999968311E-01 2.024165108E-07 3.923550552E-02
3.170000000E+01 9.999968508E-01 2.001074379E-07 3.911173421E-02
