# 04/03/2022 
# Density retrieved from www.chemicool.com/densities.html 
# Includes the real (n) and complex (k) part of the  refractive index. 
# Element, Tl  (Z = 81) 
# Nominal density, g cm-3 =  11.85 
#    E [keV]      n       k    Wavelength [nm] 
1.000000000E+00 9.987398824E-01 5.993616674E-04 1.239841975E+00
1.100000000E+00 9.989195125E-01 4.422038157E-04 1.127129068E+00
1.200000000E+00 9.990791806E-01 3.540154773E-04 1.033201645E+00
1.300000000E+00 9.992033083E-01 2.697841201E-04 9.537245958E-01
1.400000000E+00 9.993067959E-01 2.161178488E-04 8.856014104E-01
1.500000000E+00 9.993960689E-01 1.880696482E-04 8.265613164E-01
1.600000000E+00 9.994704491E-01 1.433238756E-04 7.749012341E-01
1.700000000E+00 9.995313758E-01 1.188772970E-04 7.293188086E-01
1.800000000E+00 9.995820040E-01 1.059435884E-04 6.888010970E-01
1.900000000E+00 9.996345694E-01 8.382661836E-05 6.525484077E-01
2.000000000E+00 9.996729610E-01 7.245539727E-05 6.199209873E-01
2.100000000E+00 9.997149540E-01 6.103813436E-05 5.904009403E-01
2.200000000E+00 9.997447279E-01 5.381788647E-05 5.635645339E-01
2.300000000E+00 9.997841757E-01 4.617079329E-05 5.390617281E-01
2.400000000E+00 9.998524597E-01 7.636975418E-05 5.166008227E-01
2.500000000E+00 9.998473734E-01 1.021792805E-04 4.959367898E-01
2.600000000E+00 9.998266820E-01 1.120348942E-04 4.768622979E-01
2.700000000E+00 9.998234900E-01 1.030644775E-04 4.592007313E-01
2.800000000E+00 9.998283830E-01 9.461567442E-05 4.428007052E-01
2.900000000E+00 9.998352118E-01 8.282387051E-05 4.275317154E-01
3.000000000E+00 9.998418613E-01 8.467911393E-05 4.132806582E-01
3.100000000E+00 9.998421993E-01 7.580225601E-05 3.999490241E-01
3.200000000E+00 9.998493022E-01 6.958047386E-05 3.874506171E-01
3.300000000E+00 9.998541391E-01 6.141536374E-05 3.757096893E-01
3.400000000E+00 9.998619874E-01 5.610425675E-05 3.646594043E-01
3.500000000E+00 9.998664240E-01 5.295446312E-05 3.542405642E-01
3.600000000E+00 9.998719100E-01 4.822422670E-05 3.444005485E-01
3.700000000E+00 9.998778714E-01 4.526618169E-05 3.350924256E-01
3.800000000E+00 9.998817069E-01 4.180422555E-05 3.262742038E-01
3.900000000E+00 9.998876044E-01 3.964760531E-05 3.179081986E-01
4.000000000E+00 9.998908239E-01 3.515349578E-05 3.099604936E-01
4.100000000E+00 9.998960395E-01 3.341055861E-05 3.024004816E-01
4.200000000E+00 9.998995168E-01 2.977699415E-05 2.952004701E-01
4.300000000E+00 9.999036462E-01 2.769399862E-05 2.883353429E-01
4.400000000E+00 9.999079761E-01 2.644948525E-05 2.817822670E-01
4.500000000E+00 9.999110980E-01 2.351257815E-05 2.755204388E-01
4.600000000E+00 9.999145701E-01 2.182609597E-05 2.695308640E-01
4.700000000E+00 9.999181667E-01 2.090720646E-05 2.637961648E-01
4.800000000E+00 9.999210521E-01 1.883583569E-05 2.583004114E-01
4.900000000E+00 9.999240261E-01 1.754192463E-05 2.530289744E-01
5.000000000E+00 9.999268608E-01 1.641716492E-05 2.479683949E-01
5.100000000E+00 9.999297009E-01 1.577966640E-05 2.431062695E-01
5.200000000E+00 9.999321192E-01 1.427637322E-05 2.384311490E-01
5.300000000E+00 9.999345460E-01 1.335848000E-05 2.339324480E-01
5.400000000E+00 9.999368452E-01 1.251186664E-05 2.296003657E-01
5.500000000E+00 9.999390948E-01 1.197054792E-05 2.254258136E-01
5.600000000E+00 9.999412506E-01 1.154684549E-05 2.214003526E-01
5.700000000E+00 9.999432939E-01 1.114524699E-05 2.175161359E-01
5.800000000E+00 9.999450561E-01 9.759241253E-06 2.137658577E-01
5.900000000E+00 9.999468608E-01 9.191741652E-06 2.101427076E-01
6.000000000E+00 9.999485781E-01 8.664057120E-06 2.066403291E-01
6.100000000E+00 9.999502347E-01 8.293760994E-06 2.032527827E-01
6.200000000E+00 9.999518271E-01 8.028377903E-06 1.999745120E-01
6.300000000E+00 9.999533442E-01 7.775531534E-06 1.968003134E-01
6.400000000E+00 9.999547602E-01 6.913584540E-06 1.937253085E-01
6.500000000E+00 9.999561338E-01 6.546270389E-06 1.907449192E-01
6.600000000E+00 9.999574457E-01 6.202466489E-06 1.878548446E-01
6.700000000E+00 9.999586997E-01 5.880374599E-06 1.850510410E-01
6.800000000E+00 9.999599000E-01 5.597108275E-06 1.823297021E-01
6.900000000E+00 9.999610538E-01 5.436048869E-06 1.796872427E-01
7.000000000E+00 9.999621586E-01 5.281842585E-06 1.771202821E-01
7.100000000E+00 9.999632171E-01 5.134106063E-06 1.746256302E-01
7.200000000E+00 9.999642317E-01 4.992482381E-06 1.722002742E-01
7.300000000E+00 9.999652534E-01 4.349853979E-06 1.698413664E-01
7.400000000E+00 9.999661946E-01 4.145201298E-06 1.675462128E-01
7.500000000E+00 9.999670980E-01 3.952125525E-06 1.653122633E-01
7.600000000E+00 9.999679657E-01 3.769843594E-06 1.631371019E-01
7.700000000E+00 9.999687995E-01 3.597634271E-06 1.610184383E-01
7.800000000E+00 9.999696012E-01 3.434832583E-06 1.589540993E-01
7.900000000E+00 9.999703674E-01 3.332237508E-06 1.569420221E-01
8.000000000E+00 9.999711036E-01 3.249452232E-06 1.549802468E-01
8.100000000E+00 9.999718127E-01 3.169714112E-06 1.530669104E-01
8.200000000E+00 9.999724960E-01 3.092875414E-06 1.512002408E-01
8.300000000E+00 9.999731548E-01 3.018797255E-06 1.493785512E-01
8.400000000E+00 9.999738845E-01 2.643550123E-06 1.476002351E-01
8.500000000E+00 9.999745101E-01 2.534327364E-06 1.458637617E-01
8.600000000E+00 9.999751135E-01 2.430516893E-06 1.441676715E-01
8.700000000E+00 9.999756957E-01 2.331797901E-06 1.425105718E-01
8.800000000E+00 9.999762577E-01 2.237871804E-06 1.408911335E-01
8.900000000E+00 9.999768005E-01 2.148460478E-06 1.393080870E-01
9.000000000E+00 9.999773249E-01 2.063304657E-06 1.377602194E-01
9.100000000E+00 9.999778254E-01 2.002676225E-06 1.362463708E-01
9.200000000E+00 9.999783048E-01 1.959376396E-06 1.347654320E-01
9.300000000E+00 9.999787688E-01 1.917465813E-06 1.333163414E-01
9.400000000E+00 9.999792182E-01 1.876885674E-06 1.318980824E-01
9.500000000E+00 9.999796534E-01 1.837580257E-06 1.305096815E-01
9.600000000E+00 9.999800751E-01 1.799496725E-06 1.291502057E-01
9.700000000E+00 9.999806099E-01 1.580906303E-06 1.278187603E-01
9.800000000E+00 9.999810209E-01 1.523816385E-06 1.265144872E-01
9.900000000E+00 9.999814190E-01 1.469193603E-06 1.252365631E-01
1.000000000E+01 9.999818048E-01 1.416910377E-06 1.239841975E-01
1.010000000E+01 9.999821787E-01 1.366846844E-06 1.227566311E-01
1.020000000E+01 9.999825412E-01 1.318890324E-06 1.215531348E-01
1.030000000E+01 9.999828928E-01 1.272934828E-06 1.203730072E-01
1.040000000E+01 9.999832255E-01 1.240857516E-06 1.192155745E-01
1.050000000E+01 9.999835435E-01 1.217334684E-06 1.180801881E-01
1.060000000E+01 9.999838525E-01 1.194474448E-06 1.169662240E-01
1.070000000E+01 9.999841530E-01 1.172252152E-06 1.158730817E-01
1.080000000E+01 9.999845544E-01 1.074176865E-06 1.148001828E-01
1.090000000E+01 9.999848586E-01 1.039113144E-06 1.137469701E-01
1.100000000E+01 9.999851539E-01 1.005416848E-06 1.127129068E-01
1.110000000E+01 9.999854407E-01 9.730241521E-07 1.116974752E-01
1.120000000E+01 9.999857193E-01 9.418747177E-07 1.107001763E-01
1.130000000E+01 9.999859788E-01 9.198251964E-07 1.097205287E-01
1.140000000E+01 9.999862237E-01 9.037586898E-07 1.087580679E-01
1.150000000E+01 9.999864622E-01 8.881094845E-07 1.078123456E-01
1.160000000E+01 9.999868100E-01 8.300968167E-07 1.068829288E-01
1.170000000E+01 9.999870648E-01 8.047308130E-07 1.059693995E-01
1.180000000E+01 9.999873068E-01 7.823599971E-07 1.050713538E-01
1.190000000E+01 9.999875193E-01 7.692663371E-07 1.041884012E-01
1.200000000E+01 9.999878372E-01 7.346359532E-07 1.033201645E-01
1.210000000E+01 9.999880858E-01 7.129925364E-07 1.024662789E-01
1.220000000E+01 9.999883128E-01 6.949492535E-07 1.016263914E-01
1.230000000E+01 9.999886187E-01 6.737463295E-07 1.008001605E-01
1.240000000E+01 9.999888601E-01 6.579326334E-07 9.998725601E-02
1.250000000E+01 9.999892599E-01 7.001645983E-07 9.918735797E-02
1.260000000E+01 9.999895752E-01 8.077646441E-07 9.840015671E-02
1.270000000E+01 9.999897845E-01 1.174463800E-06 9.762535233E-02
1.280000000E+01 9.999897982E-01 1.369090071E-06 9.686265426E-02
1.290000000E+01 9.999897806E-01 1.412727652E-06 9.611178098E-02
1.300000000E+01 9.999898062E-01 1.383488043E-06 9.537245958E-02
1.310000000E+01 9.999899291E-01 1.360588828E-06 9.464442554E-02
1.320000000E+01 9.999899799E-01 1.312506792E-06 9.392742232E-02
1.330000000E+01 9.999901099E-01 1.287356578E-06 9.322120110E-02
1.340000000E+01 9.999902069E-01 1.242273016E-06 9.252552049E-02
1.350000000E+01 9.999903222E-01 1.208728288E-06 9.184014627E-02
1.360000000E+01 9.999904496E-01 1.183599494E-06 9.116485107E-02
1.370000000E+01 9.999905886E-01 1.166383731E-06 9.049941420E-02
1.380000000E+01 9.999906980E-01 1.114863660E-06 8.984362135E-02
1.390000000E+01 9.999908212E-01 1.085549209E-06 8.919726436E-02
1.400000000E+01 9.999909459E-01 1.062254208E-06 8.856014104E-02
1.410000000E+01 9.999910739E-01 1.047240203E-06 8.793205493E-02
1.420000000E+01 9.999912157E-01 1.003137973E-06 8.731281511E-02
1.430000000E+01 9.999913447E-01 9.773446751E-07 8.670223598E-02
1.440000000E+01 9.999914656E-01 9.619359894E-07 8.610013712E-02
1.450000000E+01 9.999916412E-01 9.365209787E-07 8.550634307E-02
1.460000000E+01 9.999918121E-01 9.516845794E-07 8.492068319E-02
1.470000000E+01 9.999919602E-01 1.007161259E-06 8.434299147E-02
1.480000000E+01 9.999920611E-01 1.077803095E-06 8.377310639E-02
1.490000000E+01 9.999921523E-01 1.106001792E-06 8.321087078E-02
1.500000000E+01 9.999921731E-01 1.134486516E-06 8.265613164E-02
1.510000000E+01 9.999922520E-01 1.121848875E-06 8.210874004E-02
1.520000000E+01 9.999923388E-01 1.108558225E-06 8.156855096E-02
1.530000000E+01 9.999924194E-01 1.134122204E-06 8.103542318E-02
1.540000000E+01 9.999925110E-01 1.133130906E-06 8.050921913E-02
1.550000000E+01 9.999925357E-01 1.148942091E-06 7.998980481E-02
1.560000000E+01 9.999926045E-01 1.145561939E-06 7.947704965E-02
1.570000000E+01 9.999926457E-01 1.119722514E-06 7.897082641E-02
1.580000000E+01 9.999927104E-01 1.099569332E-06 7.847101105E-02
1.590000000E+01 9.999928018E-01 1.085781765E-06 7.797748268E-02
1.600000000E+01 9.999928423E-01 1.049467690E-06 7.749012341E-02
1.610000000E+01 9.999929095E-01 1.026550017E-06 7.700881830E-02
1.620000000E+01 9.999929839E-01 1.007964171E-06 7.653345522E-02
1.630000000E+01 9.999930697E-01 9.956344499E-07 7.606392482E-02
1.640000000E+01 9.999931540E-01 9.835295843E-07 7.560012040E-02
1.650000000E+01 9.999931902E-01 9.412658910E-07 7.514193785E-02
1.660000000E+01 9.999932588E-01 9.213311183E-07 7.468927558E-02
1.670000000E+01 9.999933264E-01 9.019069948E-07 7.424203441E-02
1.680000000E+01 9.999934054E-01 8.910145568E-07 7.380011753E-02
1.690000000E+01 9.999934832E-01 8.805012027E-07 7.336343045E-02
1.700000000E+01 9.999935596E-01 8.701728322E-07 7.293188086E-02
1.710000000E+01 9.999935986E-01 8.293103367E-07 7.250537863E-02
1.720000000E+01 9.999936641E-01 8.122832061E-07 7.208383573E-02
1.730000000E+01 9.999937286E-01 7.956779104E-07 7.166716616E-02
1.740000000E+01 9.999937950E-01 7.818443085E-07 7.125528590E-02
1.750000000E+01 9.999938657E-01 7.729344746E-07 7.084811283E-02
1.760000000E+01 9.999939352E-01 7.641760810E-07 7.044556674E-02
1.770000000E+01 9.999940035E-01 7.555657150E-07 7.004756919E-02
1.780000000E+01 9.999940450E-01 7.188372583E-07 6.965404352E-02
1.790000000E+01 9.999941057E-01 7.045732856E-07 6.926491478E-02
1.800000000E+01 9.999941655E-01 6.906497636E-07 6.888010970E-02
1.810000000E+01 9.999942243E-01 6.770569236E-07 6.849955661E-02
1.820000000E+01 9.999942830E-01 6.645181996E-07 6.812318542E-02
1.830000000E+01 9.999943453E-01 6.572755485E-07 6.775092757E-02
1.840000000E+01 9.999944066E-01 6.501506629E-07 6.738271601E-02
1.850000000E+01 9.999944669E-01 6.431410034E-07 6.701848511E-02
1.860000000E+01 9.999945103E-01 6.142709613E-07 6.665817068E-02
1.870000000E+01 9.999945652E-01 6.025942848E-07 6.630170987E-02
1.880000000E+01 9.999946192E-01 5.911845655E-07 6.594904120E-02
1.890000000E+01 9.999946724E-01 5.800344652E-07 6.560010448E-02
1.900000000E+01 9.999947249E-01 5.691368826E-07 6.525484077E-02
1.910000000E+01 9.999947792E-01 5.621272439E-07 6.491319239E-02
1.920000000E+01 9.999948335E-01 5.562870005E-07 6.457510284E-02
1.930000000E+01 9.999948869E-01 5.505373026E-07 6.424051682E-02
1.940000000E+01 9.999949394E-01 5.448762883E-07 6.390938013E-02
1.950000000E+01 9.999949790E-01 5.186767162E-07 6.358163972E-02
1.960000000E+01 9.999950277E-01 5.092476833E-07 6.325724360E-02
1.970000000E+01 9.999950756E-01 5.000245916E-07 6.293614084E-02
1.980000000E+01 9.999951229E-01 4.910020339E-07 6.261828154E-02
1.990000000E+01 9.999951695E-01 4.821747697E-07 6.230361681E-02
2.000000000E+01 9.999952172E-01 4.766320668E-07 6.199209873E-02
2.010000000E+01 9.999952647E-01 4.719012567E-07 6.168368033E-02
2.020000000E+01 9.999953114E-01 4.672405321E-07 6.137831557E-02
2.030000000E+01 9.999953575E-01 4.626485154E-07 6.107595934E-02
2.040000000E+01 9.999953946E-01 4.410536183E-07 6.077656738E-02
2.050000000E+01 9.999954378E-01 4.333458445E-07 6.048009632E-02
2.060000000E+01 9.999954803E-01 4.257994233E-07 6.018650362E-02
2.070000000E+01 9.999955223E-01 4.184102972E-07 5.989574756E-02
2.080000000E+01 9.999955637E-01 4.111745284E-07 5.960778724E-02
2.090000000E+01 9.999956047E-01 4.046579662E-07 5.932258252E-02
2.100000000E+01 9.999956465E-01 4.008132568E-07 5.904009403E-02
2.110000000E+01 9.999956877E-01 3.970230818E-07 5.876028316E-02
2.120000000E+01 9.999957283E-01 3.932864147E-07 5.848311201E-02
2.130000000E+01 9.999957683E-01 3.896022531E-07 5.820854341E-02
2.140000000E+01 9.999958077E-01 3.859696179E-07 5.793654087E-02
2.150000000E+01 9.999958398E-01 3.649308184E-07 5.766706859E-02
2.160000000E+01 9.999958772E-01 3.588544785E-07 5.740009142E-02
2.170000000E+01 9.999959141E-01 3.528990904E-07 5.713557487E-02
2.180000000E+01 9.999959505E-01 3.470617631E-07 5.687348507E-02
2.190000000E+01 9.999959864E-01 3.413396868E-07 5.661378879E-02
2.200000000E+01 9.999960220E-01 3.363326935E-07 5.635645339E-02
2.210000000E+01 9.999960580E-01 3.332958450E-07 5.610144681E-02
2.220000000E+01 9.999960934E-01 3.302999425E-07 5.584873759E-02
2.230000000E+01 9.999961284E-01 3.273442531E-07 5.559829482E-02
2.240000000E+01 9.999961628E-01 3.244280605E-07 5.535008815E-02
2.250000000E+01 9.999961969E-01 3.215506640E-07 5.510408776E-02
2.260000000E+01 9.999962262E-01 3.046747424E-07 5.486026436E-02
2.270000000E+01 9.999962588E-01 2.998379240E-07 5.461858919E-02
2.280000000E+01 9.999962909E-01 2.950928215E-07 5.437903397E-02
2.290000000E+01 9.999963226E-01 2.904373468E-07 5.414157094E-02
2.300000000E+01 9.999963538E-01 2.858694676E-07 5.390617281E-02
2.310000000E+01 9.999963847E-01 2.813872059E-07 5.367281275E-02
2.320000000E+01 9.999964153E-01 2.773239987E-07 5.344146442E-02
2.330000000E+01 9.999964461E-01 2.749486434E-07 5.321210191E-02
2.340000000E+01 9.999964764E-01 2.726036764E-07 5.298469977E-02
2.350000000E+01 9.999965063E-01 2.702885813E-07 5.275923296E-02
2.360000000E+01 9.999965358E-01 2.680028531E-07 5.253567689E-02
2.370000000E+01 9.999965650E-01 2.657459970E-07 5.231400737E-02
2.380000000E+01 9.999965938E-01 2.635175288E-07 5.209420061E-02
2.390000000E+01 9.999966223E-01 2.613169746E-07 5.187623325E-02
2.400000000E+01 9.999966472E-01 2.450864467E-07 5.166008227E-02
2.410000000E+01 9.999966746E-01 2.414153468E-07 5.144572509E-02
2.420000000E+01 9.999967016E-01 2.378098846E-07 5.123313945E-02
2.430000000E+01 9.999967284E-01 2.342686508E-07 5.102230348E-02
2.440000000E+01 9.999967548E-01 2.307902721E-07 5.081319568E-02
2.450000000E+01 9.999967809E-01 2.273734094E-07 5.060579488E-02
2.460000000E+01 9.999968066E-01 2.240167573E-07 5.040008027E-02
2.470000000E+01 9.999968321E-01 2.207190429E-07 5.019603136E-02
2.480000000E+01 9.999968576E-01 2.187041903E-07 4.999362801E-02
2.490000000E+01 9.999968827E-01 2.169510576E-07 4.979285038E-02
2.500000000E+01 9.999969076E-01 2.152189203E-07 4.959367898E-02
2.510000000E+01 9.999969322E-01 2.135074446E-07 4.939609460E-02
2.520000000E+01 9.999969565E-01 2.118163032E-07 4.920007836E-02
2.530000000E+01 9.999969805E-01 2.101451752E-07 4.900561164E-02
2.540000000E+01 9.999970029E-01 1.993775544E-07 4.881267616E-02
2.550000000E+01 9.999970262E-01 1.965347306E-07 4.862125391E-02
2.560000000E+01 9.999970492E-01 1.937400933E-07 4.843132713E-02
2.570000000E+01 9.999970719E-01 1.909926629E-07 4.824287839E-02
2.580000000E+01 9.999970944E-01 1.882914831E-07 4.805589049E-02
2.590000000E+01 9.999971166E-01 1.856356203E-07 4.787034651E-02
2.600000000E+01 9.999971385E-01 1.830241633E-07 4.768622979E-02
2.610000000E+01 9.999971603E-01 1.806101002E-07 4.750352393E-02
2.620000000E+01 9.999971819E-01 1.792340283E-07 4.732221277E-02
2.630000000E+01 9.999972033E-01 1.778736231E-07 4.714228040E-02
2.640000000E+01 9.999972244E-01 1.765286478E-07 4.696371116E-02
2.650000000E+01 9.999972453E-01 1.751988699E-07 4.678648961E-02
2.660000000E+01 9.999972660E-01 1.738840613E-07 4.661060055E-02
2.670000000E+01 9.999972865E-01 1.725839981E-07 4.643602901E-02
2.680000000E+01 9.999973067E-01 1.712984607E-07 4.626276025E-02
2.690000000E+01 9.999973267E-01 1.700272334E-07 4.609077972E-02
2.700000000E+01 9.999973464E-01 1.687701048E-07 4.592007313E-02
2.710000000E+01 9.999973652E-01 1.574481875E-07 4.575062637E-02
2.720000000E+01 9.999973845E-01 1.553456004E-07 4.558242554E-02
2.730000000E+01 9.999974035E-01 1.532764259E-07 4.541545694E-02
2.740000000E+01 9.999974224E-01 1.512400269E-07 4.524970710E-02
2.750000000E+01 9.999974410E-01 1.492357805E-07 4.508516271E-02
2.760000000E+01 9.999974595E-01 1.472630777E-07 4.492181067E-02
2.770000000E+01 9.999974777E-01 1.453213232E-07 4.475963807E-02
2.780000000E+01 9.999974957E-01 1.434099347E-07 4.459863218E-02
2.790000000E+01 9.999975136E-01 1.415283430E-07 4.443878045E-02
2.800000000E+01 9.999975313E-01 1.396759912E-07 4.428007052E-02
2.810000000E+01 9.999975487E-01 1.378523348E-07 4.412249020E-02
2.820000000E+01 9.999975661E-01 1.368743250E-07 4.396602747E-02
2.830000000E+01 9.999975833E-01 1.359087243E-07 4.381067048E-02
2.840000000E+01 9.999976003E-01 1.349533057E-07 4.365640756E-02
2.850000000E+01 9.999976171E-01 1.340079264E-07 4.350322718E-02
2.860000000E+01 9.999976337E-01 1.330724464E-07 4.335111799E-02
2.870000000E+01 9.999976502E-01 1.321467278E-07 4.320006880E-02
2.880000000E+01 9.999976664E-01 1.312306354E-07 4.305006856E-02
2.890000000E+01 9.999976826E-01 1.303240362E-07 4.290110639E-02
2.900000000E+01 9.999976985E-01 1.294267993E-07 4.275317154E-02
2.910000000E+01 9.999977143E-01 1.285387965E-07 4.260625342E-02
2.920000000E+01 9.999977299E-01 1.198619920E-07 4.246034160E-02
2.930000000E+01 9.999977453E-01 1.183698227E-07 4.231542575E-02
2.940000000E+01 9.999977606E-01 1.168997103E-07 4.217149573E-02
2.950000000E+01 9.999977758E-01 1.154512640E-07 4.202854151E-02
2.960000000E+01 9.999977908E-01 1.140241006E-07 4.188655320E-02
2.970000000E+01 9.999978056E-01 1.126178452E-07 4.174552103E-02
2.980000000E+01 9.999978203E-01 1.112321307E-07 4.160543539E-02
2.990000000E+01 9.999978349E-01 1.098665973E-07 4.146628678E-02
3.000000000E+01 9.999978493E-01 1.085208930E-07 4.132806582E-02
3.010000000E+01 9.999978635E-01 1.071946726E-07 4.119076328E-02
3.020000000E+01 9.999978777E-01 1.059154992E-07 4.105437002E-02
3.030000000E+01 9.999978916E-01 1.052175407E-07 4.091887705E-02
3.040000000E+01 9.999979055E-01 1.045264585E-07 4.078427548E-02
3.050000000E+01 9.999979192E-01 1.038421628E-07 4.065055654E-02
3.060000000E+01 9.999979328E-01 1.031645648E-07 4.051771159E-02
3.070000000E+01 9.999979462E-01 1.024935776E-07 4.038573207E-02
3.080000000E+01 9.999979595E-01 1.018291153E-07 4.025460956E-02
3.090000000E+01 9.999979727E-01 1.011710936E-07 4.012433575E-02
3.100000000E+01 9.999979858E-01 1.005194297E-07 3.999490241E-02
3.110000000E+01 9.999979987E-01 9.987404173E-08 3.986630143E-02
3.120000000E+01 9.999980115E-01 9.923484951E-08 3.973852483E-02
3.130000000E+01 9.999980242E-01 9.860177393E-08 3.961156468E-02
3.140000000E+01 9.999980368E-01 9.797473722E-08 3.948541320E-02
3.150000000E+01 9.999980492E-01 9.735366279E-08 3.936006269E-02
3.160000000E+01 9.999980616E-01 9.673847531E-08 3.923550552E-02
3.170000000E+01 9.999980742E-01 8.870796514E-08 3.911173421E-02
