# 04/03/2022 
# Density retrieved from www.chemicool.com/densities.html 
# Includes the real (n) and complex (k) part of the  refractive index. 
# Element, V  (Z = 23) 
# Nominal density, g cm-3 =  6.1 
#    E [keV]      n       k    Wavelength [nm] 
1.000000000E+00 9.989138017E-01 3.906527964E-04 1.239841975E+00
1.100000000E+00 9.990844743E-01 2.822542479E-04 1.127129068E+00
1.200000000E+00 9.992219635E-01 2.104956147E-04 1.033201645E+00
1.300000000E+00 9.993320195E-01 1.567523771E-04 9.537245958E-01
1.400000000E+00 9.994218423E-01 1.214218109E-04 8.856014104E-01
1.500000000E+00 9.994952804E-01 9.381294326E-05 8.265613164E-01
1.600000000E+00 9.995562268E-01 7.439699320E-05 7.749012341E-01
1.700000000E+00 9.996070760E-01 5.982610719E-05 7.293188086E-01
1.800000000E+00 9.996497371E-01 4.994798973E-05 6.888010970E-01
1.900000000E+00 9.996859532E-01 4.180774417E-05 6.525484077E-01
2.000000000E+00 9.997171386E-01 3.379043948E-05 6.199209873E-01
2.100000000E+00 9.997434364E-01 3.064892470E-05 5.904009403E-01
2.200000000E+00 9.997672097E-01 2.345208170E-05 5.635645339E-01
2.300000000E+00 9.997872443E-01 2.039696047E-05 5.390617281E-01
2.400000000E+00 9.998046046E-01 1.873262516E-05 5.166008227E-01
2.500000000E+00 9.998208526E-01 1.466062405E-05 4.959367898E-01
2.600000000E+00 9.998346365E-01 1.280240411E-05 4.768622979E-01
2.700000000E+00 9.998466588E-01 1.187163948E-05 4.592007313E-01
2.800000000E+00 9.998581009E-01 9.646801191E-06 4.428007052E-01
2.900000000E+00 9.998679808E-01 8.459309522E-06 4.275317154E-01
3.000000000E+00 9.998767486E-01 7.674703946E-06 4.132806582E-01
3.100000000E+00 9.998845720E-01 7.187547920E-06 3.999490241E-01
3.200000000E+00 9.998923081E-01 5.871598387E-06 3.874506171E-01
3.300000000E+00 9.998989480E-01 5.229153366E-06 3.757096893E-01
3.400000000E+00 9.999049288E-01 4.755329428E-06 3.646594043E-01
3.500000000E+00 9.999102838E-01 4.487478219E-06 3.542405642E-01
3.600000000E+00 9.999157101E-01 3.780316738E-06 3.444005485E-01
3.700000000E+00 9.999203923E-01 3.409505354E-06 3.350924256E-01
3.800000000E+00 9.999246956E-01 3.080421556E-06 3.262742038E-01
3.900000000E+00 9.999285292E-01 2.905186076E-06 3.179081986E-01
4.000000000E+00 9.999320581E-01 2.761742513E-06 3.099604936E-01
4.100000000E+00 9.999359203E-01 2.319384681E-06 3.024004816E-01
4.200000000E+00 9.999391133E-01 2.116749077E-06 2.952004701E-01
4.300000000E+00 9.999420742E-01 1.934384388E-06 2.883353429E-01
4.400000000E+00 9.999446978E-01 1.836671727E-06 2.817822670E-01
4.500000000E+00 9.999475760E-01 1.631021929E-06 2.755204388E-01
4.600000000E+00 9.999500461E-01 1.500721316E-06 2.695308640E-01
4.700000000E+00 9.999522956E-01 1.396693803E-06 2.637961648E-01
4.800000000E+00 9.999546606E-01 1.277543139E-06 2.583004114E-01
4.900000000E+00 9.999567806E-01 1.181347459E-06 2.530289744E-01
5.000000000E+00 9.999585562E-01 1.124649711E-06 2.479683949E-01
5.100000000E+00 9.999608286E-01 1.020163540E-06 2.431062695E-01
5.200000000E+00 9.999628315E-01 9.521788057E-07 2.384311490E-01
5.300000000E+00 9.999654583E-01 8.877099272E-07 2.339324480E-01
5.400000000E+00 9.999690620E-01 1.936498429E-06 2.296003657E-01
5.500000000E+00 9.999694344E-01 5.732769155E-06 2.254258136E-01
5.600000000E+00 9.999685756E-01 5.973641742E-06 2.214003526E-01
5.700000000E+00 9.999685353E-01 5.607477225E-06 2.175161359E-01
5.800000000E+00 9.999690093E-01 5.276605022E-06 2.137658577E-01
5.900000000E+00 9.999698437E-01 5.045659047E-06 2.101427076E-01
6.000000000E+00 9.999703676E-01 4.716455128E-06 2.066403291E-01
6.100000000E+00 9.999709873E-01 4.415001638E-06 2.032527827E-01
6.200000000E+00 9.999718206E-01 4.232803338E-06 1.999745120E-01
6.300000000E+00 9.999724083E-01 3.940384333E-06 1.968003134E-01
6.400000000E+00 9.999732106E-01 3.789984310E-06 1.937253085E-01
6.500000000E+00 9.999738004E-01 3.521893649E-06 1.907449192E-01
6.600000000E+00 9.999745482E-01 3.389137553E-06 1.878548446E-01
6.700000000E+00 9.999751363E-01 3.156644087E-06 1.850510410E-01
6.800000000E+00 9.999758147E-01 3.026628937E-06 1.823297021E-01
6.900000000E+00 9.999764022E-01 2.838091732E-06 1.796872427E-01
7.000000000E+00 9.999770404E-01 2.728350881E-06 1.771202821E-01
7.100000000E+00 9.999775924E-01 2.558149202E-06 1.746256302E-01
7.200000000E+00 9.999781837E-01 2.459608632E-06 1.722002742E-01
7.300000000E+00 9.999787114E-01 2.312610806E-06 1.698413664E-01
7.400000000E+00 9.999792428E-01 2.200731607E-06 1.675462128E-01
7.500000000E+00 9.999797698E-01 2.113908753E-06 1.653122633E-01
7.600000000E+00 9.999802547E-01 1.996858532E-06 1.631371019E-01
7.700000000E+00 9.999807394E-01 1.910451272E-06 1.610184383E-01
7.800000000E+00 9.999812014E-01 1.816282622E-06 1.589540993E-01
7.900000000E+00 9.999816650E-01 1.755829027E-06 1.569420221E-01
8.000000000E+00 9.999820918E-01 1.663828528E-06 1.549802468E-01
8.100000000E+00 9.999825194E-01 1.602995641E-06 1.530669104E-01
8.200000000E+00 9.999829155E-01 1.513824338E-06 1.512002408E-01
8.300000000E+00 9.999833088E-01 1.448582672E-06 1.493785512E-01
8.400000000E+00 9.999837038E-01 1.414297906E-06 1.476002351E-01
8.500000000E+00 9.999840595E-01 1.327319583E-06 1.458637617E-01
8.600000000E+00 9.999844191E-01 1.277646153E-06 1.441676715E-01
8.700000000E+00 9.999847752E-01 1.248443777E-06 1.425105718E-01
8.800000000E+00 9.999850974E-01 1.168313290E-06 1.408911335E-01
8.900000000E+00 9.999854213E-01 1.120450431E-06 1.393080870E-01
9.000000000E+00 9.999857421E-01 1.092396785E-06 1.377602194E-01
9.100000000E+00 9.999860537E-01 1.068519981E-06 1.362463708E-01
9.200000000E+00 9.999863369E-01 9.908723733E-07 1.347654320E-01
9.300000000E+00 9.999866230E-01 9.516794942E-07 1.333163414E-01
9.400000000E+00 9.999869042E-01 9.257236940E-07 1.318980824E-01
9.500000000E+00 9.999871784E-01 9.063373474E-07 1.305096815E-01
9.600000000E+00 9.999874333E-01 8.461445949E-07 1.291502057E-01
9.700000000E+00 9.999876873E-01 8.141446882E-07 1.278187603E-01
9.800000000E+00 9.999879336E-01 7.835608099E-07 1.265144872E-01
9.900000000E+00 9.999881749E-01 7.630558090E-07 1.252365631E-01
1.000000000E+01 9.999884102E-01 7.478709984E-07 1.239841975E-01
1.010000000E+01 9.999886386E-01 7.331349852E-07 1.227566311E-01
1.020000000E+01 9.999888518E-01 6.755690421E-07 1.215531348E-01
1.030000000E+01 9.999890650E-01 6.514158496E-07 1.203730072E-01
1.040000000E+01 9.999892722E-01 6.282715974E-07 1.192155745E-01
1.050000000E+01 9.999894735E-01 6.060861826E-07 1.180801881E-01
1.060000000E+01 9.999896708E-01 5.926358421E-07 1.169662240E-01
1.070000000E+01 9.999898629E-01 5.816102997E-07 1.158730817E-01
1.080000000E+01 9.999900498E-01 5.708896023E-07 1.148001828E-01
1.090000000E+01 9.999902315E-01 5.604626144E-07 1.137469701E-01
1.100000000E+01 9.999904037E-01 5.095269111E-07 1.127129068E-01
1.110000000E+01 9.999905749E-01 4.924647826E-07 1.116974752E-01
1.120000000E+01 9.999907415E-01 4.760670209E-07 1.107001763E-01
1.130000000E+01 9.999909038E-01 4.603028989E-07 1.097205287E-01
1.140000000E+01 9.999910619E-01 4.451433480E-07 1.087580679E-01
1.150000000E+01 9.999912161E-01 4.322348204E-07 1.078123456E-01
1.160000000E+01 9.999913669E-01 4.248146180E-07 1.068829288E-01
1.170000000E+01 9.999915138E-01 4.175838630E-07 1.059693995E-01
1.180000000E+01 9.999916570E-01 4.105361606E-07 1.050713538E-01
1.190000000E+01 9.999917967E-01 4.036653838E-07 1.041884012E-01
1.200000000E+01 9.999919328E-01 3.969656597E-07 1.033201645E-01
1.210000000E+01 9.999920656E-01 3.904313572E-07 1.024662789E-01
1.220000000E+01 9.999921951E-01 3.453089560E-07 1.016263914E-01
1.230000000E+01 9.999923215E-01 3.348081382E-07 1.008001605E-01
1.240000000E+01 9.999924449E-01 3.246776786E-07 9.998725601E-02
1.250000000E+01 9.999925653E-01 3.149020636E-07 9.918735797E-02
1.260000000E+01 9.999926828E-01 3.054665381E-07 9.840015671E-02
1.270000000E+01 9.999927976E-01 2.963570632E-07 9.762535233E-02
1.280000000E+01 9.999929097E-01 2.875602764E-07 9.686265426E-02
1.290000000E+01 9.999930192E-01 2.790634542E-07 9.611178098E-02
1.300000000E+01 9.999931262E-01 2.725402969E-07 9.537245958E-02
1.310000000E+01 9.999932307E-01 2.683952577E-07 9.464442554E-02
1.320000000E+01 9.999933329E-01 2.643440666E-07 9.392742232E-02
1.330000000E+01 9.999934328E-01 2.603839119E-07 9.322120110E-02
1.340000000E+01 9.999935304E-01 2.565120860E-07 9.252552049E-02
1.350000000E+01 9.999936259E-01 2.527259817E-07 9.184014627E-02
1.360000000E+01 9.999937193E-01 2.490230870E-07 9.116485107E-02
1.370000000E+01 9.999938106E-01 2.454009812E-07 9.049941420E-02
1.380000000E+01 9.999939026E-01 2.163434302E-07 8.984362135E-02
1.390000000E+01 9.999939903E-01 2.104612022E-07 8.919726436E-02
1.400000000E+01 9.999940761E-01 2.047635187E-07 8.856014104E-02
1.410000000E+01 9.999941601E-01 1.992435086E-07 8.793205493E-02
1.420000000E+01 9.999942423E-01 1.938945993E-07 8.731281511E-02
1.430000000E+01 9.999943228E-01 1.887105023E-07 8.670223598E-02
1.440000000E+01 9.999944017E-01 1.836851985E-07 8.610013712E-02
1.450000000E+01 9.999944789E-01 1.788129258E-07 8.550634307E-02
1.460000000E+01 9.999945545E-01 1.740881658E-07 8.492068319E-02
1.470000000E+01 9.999946285E-01 1.698967944E-07 8.434299147E-02
1.480000000E+01 9.999947008E-01 1.676086482E-07 8.377310639E-02
1.490000000E+01 9.999947717E-01 1.653664173E-07 8.321087078E-02
1.500000000E+01 9.999948412E-01 1.631688813E-07 8.265613164E-02
1.510000000E+01 9.999949093E-01 1.610148603E-07 8.210874004E-02
1.520000000E+01 9.999949761E-01 1.589032129E-07 8.156855096E-02
1.530000000E+01 9.999950415E-01 1.568328348E-07 8.103542318E-02
1.540000000E+01 9.999951057E-01 1.548026577E-07 8.050921913E-02
1.550000000E+01 9.999951687E-01 1.528116474E-07 7.998980481E-02
1.560000000E+01 9.999952336E-01 1.353210231E-07 7.947704965E-02
1.570000000E+01 9.999952945E-01 1.320394188E-07 7.897082641E-02
1.580000000E+01 9.999953541E-01 1.288493272E-07 7.847101105E-02
1.590000000E+01 9.999954127E-01 1.257477209E-07 7.797748268E-02
1.600000000E+01 9.999954702E-01 1.227316890E-07 7.749012341E-02
1.610000000E+01 9.999955266E-01 1.197984328E-07 7.700881830E-02
1.620000000E+01 9.999955819E-01 1.169452603E-07 7.653345522E-02
1.630000000E+01 9.999956362E-01 1.141695818E-07 7.606392482E-02
1.640000000E+01 9.999956895E-01 1.114689053E-07 7.560012040E-02
1.650000000E+01 9.999957419E-01 1.088408324E-07 7.514193785E-02
1.660000000E+01 9.999957933E-01 1.062830541E-07 7.468927558E-02
1.670000000E+01 9.999958436E-01 1.046565149E-07 7.424203441E-02
1.680000000E+01 9.999958929E-01 1.034143121E-07 7.380011753E-02
1.690000000E+01 9.999959414E-01 1.021940949E-07 7.336343045E-02
1.700000000E+01 9.999959890E-01 1.009953475E-07 7.293188086E-02
1.710000000E+01 9.999960358E-01 9.981756930E-08 7.250537863E-02
1.720000000E+01 9.999960817E-01 9.866027393E-08 7.208383573E-02
1.730000000E+01 9.999961269E-01 9.752298921E-08 7.166716616E-02
1.740000000E+01 9.999961713E-01 9.640525644E-08 7.125528590E-02
1.750000000E+01 9.999962149E-01 9.530663001E-08 7.084811283E-02
1.760000000E+01 9.999962578E-01 9.422667691E-08 7.044556674E-02
1.770000000E+01 9.999963030E-01 8.314178405E-08 7.004756919E-02
1.780000000E+01 9.999963447E-01 8.134558228E-08 6.965404352E-02
1.790000000E+01 9.999963857E-01 7.959377050E-08 6.926491478E-02
1.800000000E+01 9.999964260E-01 7.788504833E-08 6.888010970E-02
1.810000000E+01 9.999964656E-01 7.621815989E-08 6.849955661E-02
1.820000000E+01 9.999965046E-01 7.459189203E-08 6.812318542E-02
1.830000000E+01 9.999965429E-01 7.300507273E-08 6.775092757E-02
1.840000000E+01 9.999965806E-01 7.145656940E-08 6.738271601E-02
1.850000000E+01 9.999966177E-01 6.994528745E-08 6.701848511E-02
1.860000000E+01 9.999966542E-01 6.847016879E-08 6.665817068E-02
1.870000000E+01 9.999966901E-01 6.703019041E-08 6.630170987E-02
1.880000000E+01 9.999967254E-01 6.562436309E-08 6.594904120E-02
1.890000000E+01 9.999967600E-01 6.486318252E-08 6.560010448E-02
1.900000000E+01 9.999967940E-01 6.418220894E-08 6.525484077E-02
1.910000000E+01 9.999968275E-01 6.351190326E-08 6.491319239E-02
1.920000000E+01 9.999968605E-01 6.285204380E-08 6.457510284E-02
1.930000000E+01 9.999968929E-01 6.220241463E-08 6.424051682E-02
1.940000000E+01 9.999969249E-01 6.156280536E-08 6.390938013E-02
1.950000000E+01 9.999969563E-01 6.093301098E-08 6.358163972E-02
1.960000000E+01 9.999969873E-01 6.031283170E-08 6.325724360E-02
1.970000000E+01 9.999970178E-01 5.970207278E-08 6.293614084E-02
1.980000000E+01 9.999970479E-01 5.910054440E-08 6.261828154E-02
1.990000000E+01 9.999970774E-01 5.850806148E-08 6.230361681E-02
2.000000000E+01 9.999971090E-01 5.171646505E-08 6.199209873E-02
2.010000000E+01 9.999971379E-01 5.071978517E-08 6.168368033E-02
2.020000000E+01 9.999971664E-01 4.974499635E-08 6.137831557E-02
2.030000000E+01 9.999971944E-01 4.879152894E-08 6.107595934E-02
2.040000000E+01 9.999972220E-01 4.785883060E-08 6.077656738E-02
2.050000000E+01 9.999972492E-01 4.694636572E-08 6.048009632E-02
2.060000000E+01 9.999972760E-01 4.605361480E-08 6.018650362E-02
2.070000000E+01 9.999973025E-01 4.518007392E-08 5.989574756E-02
2.080000000E+01 9.999973285E-01 4.432525422E-08 5.960778724E-02
2.090000000E+01 9.999973542E-01 4.348868135E-08 5.932258252E-02
2.100000000E+01 9.999973795E-01 4.266989499E-08 5.904009403E-02
2.110000000E+01 9.999974044E-01 4.186844839E-08 5.876028316E-02
2.120000000E+01 9.999974289E-01 4.126183910E-08 5.848311201E-02
2.130000000E+01 9.999974530E-01 4.087531346E-08 5.820854341E-02
2.140000000E+01 9.999974767E-01 4.049419374E-08 5.793654087E-02
2.150000000E+01 9.999975002E-01 4.011837959E-08 5.766706859E-02
2.160000000E+01 9.999975233E-01 3.974777299E-08 5.740009142E-02
2.170000000E+01 9.999975460E-01 3.938227817E-08 5.713557487E-02
2.180000000E+01 9.999975685E-01 3.902180154E-08 5.687348507E-02
2.190000000E+01 9.999975906E-01 3.866625167E-08 5.661378879E-02
2.200000000E+01 9.999976125E-01 3.831553919E-08 5.635645339E-02
2.210000000E+01 9.999976341E-01 3.796957672E-08 5.610144681E-02
2.220000000E+01 9.999976553E-01 3.762827888E-08 5.584873759E-02
2.230000000E+01 9.999976763E-01 3.729156220E-08 5.559829482E-02
2.240000000E+01 9.999976988E-01 3.320086291E-08 5.535008815E-02
2.250000000E+01 9.999977193E-01 3.262524085E-08 5.510408776E-02
2.260000000E+01 9.999977396E-01 3.206095036E-08 5.486026436E-02
2.270000000E+01 9.999977596E-01 3.150772731E-08 5.461858919E-02
2.280000000E+01 9.999977793E-01 3.096531474E-08 5.437903397E-02
2.290000000E+01 9.999977988E-01 3.043346270E-08 5.414157094E-02
2.300000000E+01 9.999978180E-01 2.991192796E-08 5.390617281E-02
2.310000000E+01 9.999978370E-01 2.940047384E-08 5.367281275E-02
2.320000000E+01 9.999978557E-01 2.889887001E-08 5.344146442E-02
2.330000000E+01 9.999978742E-01 2.840689227E-08 5.321210191E-02
2.340000000E+01 9.999978924E-01 2.792432240E-08 5.298469977E-02
2.350000000E+01 9.999979104E-01 2.745094793E-08 5.275923296E-02
2.360000000E+01 9.999979282E-01 2.698656200E-08 5.253567689E-02
2.370000000E+01 9.999979458E-01 2.653096319E-08 5.231400737E-02
2.380000000E+01 9.999979631E-01 2.609109838E-08 5.209420061E-02
2.390000000E+01 9.999979801E-01 2.587321960E-08 5.187623325E-02
2.400000000E+01 9.999979969E-01 2.565805862E-08 5.166008227E-02
2.410000000E+01 9.999980135E-01 2.544557044E-08 5.144572509E-02
2.420000000E+01 9.999980299E-01 2.523571096E-08 5.123313945E-02
2.430000000E+01 9.999980460E-01 2.502843700E-08 5.102230348E-02
2.440000000E+01 9.999980620E-01 2.482370627E-08 5.081319568E-02
2.450000000E+01 9.999980778E-01 2.462147733E-08 5.060579488E-02
2.460000000E+01 9.999980934E-01 2.442170957E-08 5.040008027E-02
2.470000000E+01 9.999981088E-01 2.422436323E-08 5.019603136E-02
2.480000000E+01 9.999981240E-01 2.402939933E-08 4.999362801E-02
2.490000000E+01 9.999981391E-01 2.383677967E-08 4.979285038E-02
2.500000000E+01 9.999981539E-01 2.364646682E-08 4.959367898E-02
2.510000000E+01 9.999981686E-01 2.345842410E-08 4.939609460E-02
2.520000000E+01 9.999981844E-01 2.089202583E-08 4.920007836E-02
2.530000000E+01 9.999981989E-01 2.056888183E-08 4.900561164E-02
2.540000000E+01 9.999982131E-01 2.025140583E-08 4.881267616E-02
2.550000000E+01 9.999982272E-01 1.993948011E-08 4.862125391E-02
2.560000000E+01 9.999982411E-01 1.963298980E-08 4.843132713E-02
2.570000000E+01 9.999982548E-01 1.933182280E-08 4.824287839E-02
2.580000000E+01 9.999982684E-01 1.903586975E-08 4.805589049E-02
2.590000000E+01 9.999982818E-01 1.874502387E-08 4.787034651E-02
2.600000000E+01 9.999982951E-01 1.845918096E-08 4.768622979E-02
2.610000000E+01 9.999983082E-01 1.817823930E-08 4.750352393E-02
2.620000000E+01 9.999983212E-01 1.790209958E-08 4.732221277E-02
2.630000000E+01 9.999983340E-01 1.763066485E-08 4.714228040E-02
2.640000000E+01 9.999983467E-01 1.736384042E-08 4.696371116E-02
2.650000000E+01 9.999983592E-01 1.710153386E-08 4.678648961E-02
2.660000000E+01 9.999983716E-01 1.684365489E-08 4.661060055E-02
2.670000000E+01 9.999983838E-01 1.659011532E-08 4.643602901E-02
2.680000000E+01 9.999983959E-01 1.637216049E-08 4.626276025E-02
2.690000000E+01 9.999984078E-01 1.625066065E-08 4.609077972E-02
2.700000000E+01 9.999984196E-01 1.613050830E-08 4.592007313E-02
2.710000000E+01 9.999984312E-01 1.601168360E-08 4.575062637E-02
2.720000000E+01 9.999984428E-01 1.589416705E-08 4.558242554E-02
2.730000000E+01 9.999984541E-01 1.577793953E-08 4.541545694E-02
2.740000000E+01 9.999984654E-01 1.566298225E-08 4.524970710E-02
2.750000000E+01 9.999984765E-01 1.554927676E-08 4.508516271E-02
2.760000000E+01 9.999984876E-01 1.543680497E-08 4.492181067E-02
2.770000000E+01 9.999984985E-01 1.532554908E-08 4.475963807E-02
2.780000000E+01 9.999985093E-01 1.521549163E-08 4.459863218E-02
2.790000000E+01 9.999985199E-01 1.510661548E-08 4.443878045E-02
2.800000000E+01 9.999985305E-01 1.499890377E-08 4.428007052E-02
2.810000000E+01 9.999985409E-01 1.489233996E-08 4.412249020E-02
2.820000000E+01 9.999985512E-01 1.478690779E-08 4.396602747E-02
2.830000000E+01 9.999985615E-01 1.468259131E-08 4.381067048E-02
2.840000000E+01 9.999985726E-01 1.302294876E-08 4.365640756E-02
2.850000000E+01 9.999985826E-01 1.284236710E-08 4.350322718E-02
2.860000000E+01 9.999985926E-01 1.266460870E-08 4.335111799E-02
2.870000000E+01 9.999986024E-01 1.248962136E-08 4.320006880E-02
2.880000000E+01 9.999986122E-01 1.231735399E-08 4.305006856E-02
2.890000000E+01 9.999986218E-01 1.214775662E-08 4.290110639E-02
2.900000000E+01 9.999986313E-01 1.198078033E-08 4.275317154E-02
2.910000000E+01 9.999986408E-01 1.181637728E-08 4.260625342E-02
2.920000000E+01 9.999986501E-01 1.165450062E-08 4.246034160E-02
2.930000000E+01 9.999986594E-01 1.149510452E-08 4.231542575E-02
2.940000000E+01 9.999986685E-01 1.133814409E-08 4.217149573E-02
2.950000000E+01 9.999986776E-01 1.118357541E-08 4.202854151E-02
2.960000000E+01 9.999986866E-01 1.103135549E-08 4.188655320E-02
2.970000000E+01 9.999986954E-01 1.088144223E-08 4.174552103E-02
2.980000000E+01 9.999987042E-01 1.073379441E-08 4.160543539E-02
2.990000000E+01 9.999987129E-01 1.058837168E-08 4.146628678E-02
3.000000000E+01 9.999987215E-01 1.044513452E-08 4.132806582E-02
3.010000000E+01 9.999987301E-01 1.030404423E-08 4.119076328E-02
3.020000000E+01 9.999987385E-01 1.022780340E-08 4.105437002E-02
3.030000000E+01 9.999987468E-01 1.016040455E-08 4.091887705E-02
3.040000000E+01 9.999987550E-01 1.009366973E-08 4.078427548E-02
3.050000000E+01 9.999987632E-01 1.002759023E-08 4.065055654E-02
3.060000000E+01 9.999987712E-01 9.962157520E-09 4.051771159E-02
3.070000000E+01 9.999987792E-01 9.897363171E-09 4.038573207E-02
3.080000000E+01 9.999987871E-01 9.833198911E-09 4.025460956E-02
3.090000000E+01 9.999987950E-01 9.769656597E-09 4.012433575E-02
3.100000000E+01 9.999988027E-01 9.706728216E-09 3.999490241E-02
3.110000000E+01 9.999988104E-01 9.644405884E-09 3.986630143E-02
3.120000000E+01 9.999988180E-01 9.582681845E-09 3.973852483E-02
3.130000000E+01 9.999988256E-01 9.521548465E-09 3.961156468E-02
3.140000000E+01 9.999988330E-01 9.460998230E-09 3.948541320E-02
3.150000000E+01 9.999988404E-01 9.401023749E-09 3.936006269E-02
3.160000000E+01 9.999988478E-01 9.341617745E-09 3.923550552E-02
3.170000000E+01 9.999988550E-01 9.282773055E-09 3.911173421E-02
