# 04/03/2022 
# Density retrieved from www.chemicool.com/densities.html 
# Includes the real (n) and complex (k) part of the  refractive index. 
# Element, Zn  (Z = 30) 
# Nominal density, g cm-3 =  7.14 
#    E [keV]      n       k    Wavelength [nm] 
1.000000000E+00 9.994170554E-01 1.092725307E-04 1.239841975E+00
1.100000000E+00 9.993994700E-01 5.783877527E-04 1.127129068E+00
1.200000000E+00 9.993556654E-01 4.785888734E-04 1.033201645E+00
1.300000000E+00 9.993685170E-01 3.799036829E-04 9.537245958E-01
1.400000000E+00 9.994004713E-01 2.883720186E-04 8.856014104E-01
1.500000000E+00 9.994607919E-01 2.352840048E-04 8.265613164E-01
1.600000000E+00 9.995054178E-01 1.823394831E-04 7.749012341E-01
1.700000000E+00 9.995525995E-01 1.480188047E-04 7.293188086E-01
1.800000000E+00 9.995959149E-01 1.232763138E-04 6.888010970E-01
1.900000000E+00 9.996324557E-01 1.000549204E-04 6.525484077E-01
2.000000000E+00 9.996656669E-01 8.349568526E-05 6.199209873E-01
2.100000000E+00 9.996951844E-01 7.112174387E-05 5.904009403E-01
2.200000000E+00 9.997209172E-01 6.003557201E-05 5.635645339E-01
2.300000000E+00 9.997438258E-01 5.119754953E-05 5.390617281E-01
2.400000000E+00 9.997641196E-01 4.357139146E-05 5.166008227E-01
2.500000000E+00 9.997823034E-01 3.761009895E-05 4.959367898E-01
2.600000000E+00 9.997985390E-01 3.265554230E-05 4.768622979E-01
2.700000000E+00 9.998130695E-01 2.849865187E-05 4.592007313E-01
2.800000000E+00 9.998261391E-01 2.532304457E-05 4.428007052E-01
2.900000000E+00 9.998379235E-01 2.197317944E-05 4.275317154E-01
3.000000000E+00 9.998485856E-01 1.949426939E-05 4.132806582E-01
3.100000000E+00 9.998582400E-01 1.740761701E-05 3.999490241E-01
3.200000000E+00 9.998670530E-01 1.534104313E-05 3.874506171E-01
3.300000000E+00 9.998750713E-01 1.370428820E-05 3.757096893E-01
3.400000000E+00 9.998823781E-01 1.244299999E-05 3.646594043E-01
3.500000000E+00 9.998890838E-01 1.124804268E-05 3.542405642E-01
3.600000000E+00 9.998952699E-01 9.985590797E-06 3.444005485E-01
3.700000000E+00 9.999008545E-01 9.453123209E-06 3.350924256E-01
3.800000000E+00 9.999061893E-01 8.158493094E-06 3.262742038E-01
3.900000000E+00 9.999110098E-01 7.436098006E-06 3.179081986E-01
4.000000000E+00 9.999154037E-01 7.068940667E-06 3.099604936E-01
4.100000000E+00 9.999194800E-01 6.728319493E-06 3.024004816E-01
4.200000000E+00 9.999235228E-01 5.640790107E-06 2.952004701E-01
4.300000000E+00 9.999271094E-01 5.166405170E-06 2.883353429E-01
4.400000000E+00 9.999304496E-01 4.738165550E-06 2.817822670E-01
4.500000000E+00 9.999335384E-01 4.432944492E-06 2.755204388E-01
4.600000000E+00 9.999363966E-01 4.242302740E-06 2.695308640E-01
4.700000000E+00 9.999390744E-01 4.063699682E-06 2.637961648E-01
4.800000000E+00 9.999417999E-01 3.431281223E-06 2.583004114E-01
4.900000000E+00 9.999442049E-01 3.175620525E-06 2.530289744E-01
5.000000000E+00 9.999464640E-01 2.941959243E-06 2.479683949E-01
5.100000000E+00 9.999485762E-01 2.754981539E-06 2.431062695E-01
5.200000000E+00 9.999505351E-01 2.650039565E-06 2.384311490E-01
5.300000000E+00 9.999523840E-01 2.550981482E-06 2.339324480E-01
5.400000000E+00 9.999541313E-01 2.457375509E-06 2.296003657E-01
5.500000000E+00 9.999559836E-01 2.060997486E-06 2.254258136E-01
5.600000000E+00 9.999575823E-01 1.925115565E-06 2.214003526E-01
5.700000000E+00 9.999590956E-01 1.799548220E-06 2.175161359E-01
5.800000000E+00 9.999605212E-01 1.695968806E-06 2.137658577E-01
5.900000000E+00 9.999618481E-01 1.638965546E-06 2.101427076E-01
6.000000000E+00 9.999631092E-01 1.584788629E-06 2.066403291E-01
6.100000000E+00 9.999643089E-01 1.533254250E-06 2.032527827E-01
6.200000000E+00 9.999656149E-01 1.313601395E-06 1.999745120E-01
6.300000000E+00 9.999667322E-01 1.236446490E-06 1.968003134E-01
6.400000000E+00 9.999677960E-01 1.164518272E-06 1.937253085E-01
6.500000000E+00 9.999688096E-01 1.097399073E-06 1.907449192E-01
6.600000000E+00 9.999697741E-01 1.036784097E-06 1.878548446E-01
6.700000000E+00 9.999706697E-01 1.006066279E-06 1.850510410E-01
6.800000000E+00 9.999715260E-01 9.766936695E-07 1.823297021E-01
6.900000000E+00 9.999723453E-01 9.485888527E-07 1.796872427E-01
7.000000000E+00 9.999731298E-01 9.216799036E-07 1.771202821E-01
7.100000000E+00 9.999740555E-01 7.870528546E-07 1.746256302E-01
7.200000000E+00 9.999748018E-01 7.462290041E-07 1.722002742E-01
7.300000000E+00 9.999755163E-01 7.078407690E-07 1.698413664E-01
7.400000000E+00 9.999762009E-01 6.717166346E-07 1.675462128E-01
7.500000000E+00 9.999768561E-01 6.384738021E-07 1.653122633E-01
7.600000000E+00 9.999774611E-01 6.217823990E-07 1.631371019E-01
7.700000000E+00 9.999780427E-01 6.057370782E-07 1.610184383E-01
7.800000000E+00 9.999787172E-01 5.500961291E-07 1.589540993E-01
7.900000000E+00 9.999792875E-01 5.240582469E-07 1.569420221E-01
8.000000000E+00 9.999798353E-01 4.994396284E-07 1.549802468E-01
8.100000000E+00 9.999803617E-01 4.761488585E-07 1.530669104E-01
8.200000000E+00 9.999808436E-01 4.625613431E-07 1.512002408E-01
8.300000000E+00 9.999813024E-01 4.514824315E-07 1.493785512E-01
8.400000000E+00 9.999818709E-01 4.147705204E-07 1.476002351E-01
8.500000000E+00 9.999823369E-01 3.964199295E-07 1.458637617E-01
8.600000000E+00 9.999827712E-01 3.818998336E-07 1.441676715E-01
8.700000000E+00 9.999831650E-01 3.731709828E-07 1.425105718E-01
8.800000000E+00 9.999836856E-01 3.472234410E-07 1.408911335E-01
8.900000000E+00 9.999841016E-01 3.330430794E-07 1.393080870E-01
9.000000000E+00 9.999844529E-01 3.256832385E-07 1.377602194E-01
9.100000000E+00 9.999849746E-01 3.054600373E-07 1.362463708E-01
9.200000000E+00 9.999853529E-01 2.949995181E-07 1.347654320E-01
9.300000000E+00 9.999858573E-01 2.812227364E-07 1.333163414E-01
9.400000000E+00 9.999863581E-01 2.744695348E-07 1.318980824E-01
9.500000000E+00 9.999869827E-01 3.477261380E-07 1.305096815E-01
9.600000000E+00 9.999876353E-01 8.817915702E-07 1.291502057E-01
9.700000000E+00 9.999877062E-01 1.535739619E-06 1.278187603E-01
9.800000000E+00 9.999875076E-01 1.722850268E-06 1.265144872E-01
9.900000000E+00 9.999875374E-01 1.699180646E-06 1.252365631E-01
1.000000000E+01 9.999875789E-01 1.643087628E-06 1.239841975E-01
1.010000000E+01 9.999876716E-01 1.582691037E-06 1.227566311E-01
1.020000000E+01 9.999878557E-01 1.541403253E-06 1.215531348E-01
1.030000000E+01 9.999879637E-01 1.476230758E-06 1.203730072E-01
1.040000000E+01 9.999881449E-01 1.434242494E-06 1.192155745E-01
1.050000000E+01 9.999882921E-01 1.377919825E-06 1.180801881E-01
1.060000000E+01 9.999884581E-01 1.331816208E-06 1.169662240E-01
1.070000000E+01 9.999886634E-01 1.303473971E-06 1.158730817E-01
1.080000000E+01 9.999888014E-01 1.245677353E-06 1.148001828E-01
1.090000000E+01 9.999889734E-01 1.207425840E-06 1.137469701E-01
1.100000000E+01 9.999891730E-01 1.185572430E-06 1.127129068E-01
1.110000000E+01 9.999893054E-01 1.129289833E-06 1.116974752E-01
1.120000000E+01 9.999894749E-01 1.097534280E-06 1.107001763E-01
1.130000000E+01 9.999896316E-01 1.059289149E-06 1.097205287E-01
1.140000000E+01 9.999897907E-01 1.026315752E-06 1.087580679E-01
1.150000000E+01 9.999899616E-01 1.004651217E-06 1.078123456E-01
1.160000000E+01 9.999901029E-01 9.642195273E-07 1.068829288E-01
1.170000000E+01 9.999902540E-01 9.348893994E-07 1.059693995E-01
1.180000000E+01 9.999904102E-01 9.129171358E-07 1.050713538E-01
1.190000000E+01 9.999905707E-01 8.976384576E-07 1.041884012E-01
1.200000000E+01 9.999906930E-01 8.525571983E-07 1.033201645E-01
1.210000000E+01 9.999908364E-01 8.298433358E-07 1.024662789E-01
1.220000000E+01 9.999909860E-01 8.162951008E-07 1.016263914E-01
1.230000000E+01 9.999911077E-01 7.789528464E-07 1.008001605E-01
1.240000000E+01 9.999912452E-01 7.610986823E-07 9.998725601E-02
1.250000000E+01 9.999913847E-01 7.489698137E-07 9.918735797E-02
1.260000000E+01 9.999915002E-01 7.131634143E-07 9.840015671E-02
1.270000000E+01 9.999916261E-01 6.933848101E-07 9.762535233E-02
1.280000000E+01 9.999917565E-01 6.825929933E-07 9.686265426E-02
1.290000000E+01 9.999918696E-01 6.543793380E-07 9.611178098E-02
1.300000000E+01 9.999919899E-01 6.390080785E-07 9.537245958E-02
1.310000000E+01 9.999921040E-01 6.185900171E-07 9.464442554E-02
1.320000000E+01 9.999922196E-01 6.043314513E-07 9.392742232E-02
1.330000000E+01 9.999923361E-01 5.952779246E-07 9.322120110E-02
1.340000000E+01 9.999924382E-01 5.693034557E-07 9.252552049E-02
1.350000000E+01 9.999925449E-01 5.539287438E-07 9.184014627E-02
1.360000000E+01 9.999926539E-01 5.454815981E-07 9.116485107E-02
1.370000000E+01 9.999927530E-01 5.248791601E-07 9.049941420E-02
1.380000000E+01 9.999928546E-01 5.122856236E-07 8.984362135E-02
1.390000000E+01 9.999929570E-01 5.049411219E-07 8.919726436E-02
1.400000000E+01 9.999930499E-01 4.849071886E-07 8.856014104E-02
1.410000000E+01 9.999931449E-01 4.724283075E-07 8.793205493E-02
1.420000000E+01 9.999932403E-01 4.643753468E-07 8.731281511E-02
1.430000000E+01 9.999933345E-01 4.579032956E-07 8.670223598E-02
1.440000000E+01 9.999934194E-01 4.373775484E-07 8.610013712E-02
1.450000000E+01 9.999935072E-01 4.263925858E-07 8.550634307E-02
1.460000000E+01 9.999935936E-01 4.161474473E-07 8.492068319E-02
1.470000000E+01 9.999936804E-01 4.105048353E-07 8.434299147E-02
1.480000000E+01 9.999937655E-01 4.049762138E-07 8.377310639E-02
1.490000000E+01 9.999938426E-01 3.858170771E-07 8.321087078E-02
1.500000000E+01 9.999939225E-01 3.764161013E-07 8.265613164E-02
1.510000000E+01 9.999940023E-01 3.706474625E-07 8.210874004E-02
1.520000000E+01 9.999940810E-01 3.657865648E-07 8.156855096E-02
1.530000000E+01 9.999941535E-01 3.498949046E-07 8.103542318E-02
1.540000000E+01 9.999942276E-01 3.415526634E-07 8.050921913E-02
1.550000000E+01 9.999943005E-01 3.338609736E-07 7.998980481E-02
1.560000000E+01 9.999943734E-01 3.295944235E-07 7.947704965E-02
1.570000000E+01 9.999944448E-01 3.254091399E-07 7.897082641E-02
1.580000000E+01 9.999945111E-01 3.104445330E-07 7.847101105E-02
1.590000000E+01 9.999945788E-01 3.031962922E-07 7.797748268E-02
1.600000000E+01 9.999946452E-01 2.961458596E-07 7.749012341E-02
1.610000000E+01 9.999947111E-01 2.914194386E-07 7.700881830E-02
1.620000000E+01 9.999947762E-01 2.878327719E-07 7.653345522E-02
1.630000000E+01 9.999948401E-01 2.843119149E-07 7.606392482E-02
1.640000000E+01 9.999949028E-01 2.808552672E-07 7.560012040E-02
1.650000000E+01 9.999949608E-01 2.641204555E-07 7.514193785E-02
1.660000000E+01 9.999950206E-01 2.582216200E-07 7.468927558E-02
1.670000000E+01 9.999950793E-01 2.524769700E-07 7.424203441E-02
1.680000000E+01 9.999951370E-01 2.468816999E-07 7.380011753E-02
1.690000000E+01 9.999951937E-01 2.414311797E-07 7.336343045E-02
1.700000000E+01 9.999952496E-01 2.365408038E-07 7.293188086E-02
1.710000000E+01 9.999953050E-01 2.337823340E-07 7.250537863E-02
1.720000000E+01 9.999953594E-01 2.310718371E-07 7.208383573E-02
1.730000000E+01 9.999954129E-01 2.284082070E-07 7.166716616E-02
1.740000000E+01 9.999954655E-01 2.257903696E-07 7.125528590E-02
1.750000000E+01 9.999955171E-01 2.232172809E-07 7.084811283E-02
1.760000000E+01 9.999955679E-01 2.206879271E-07 7.044556674E-02
1.770000000E+01 9.999956151E-01 2.032992334E-07 7.004756919E-02
1.780000000E+01 9.999956639E-01 1.990606799E-07 6.965404352E-02
1.790000000E+01 9.999957118E-01 1.949255515E-07 6.926491478E-02
1.800000000E+01 9.999957590E-01 1.908908380E-07 6.888010970E-02
1.810000000E+01 9.999958054E-01 1.869536320E-07 6.849955661E-02
1.820000000E+01 9.999958510E-01 1.831111247E-07 6.812318542E-02
1.830000000E+01 9.999958959E-01 1.793606018E-07 6.775092757E-02
1.840000000E+01 9.999959403E-01 1.771314035E-07 6.738271601E-02
1.850000000E+01 9.999959841E-01 1.752216449E-07 6.701848511E-02
1.860000000E+01 9.999960272E-01 1.733426060E-07 6.665817068E-02
1.870000000E+01 9.999960695E-01 1.714936314E-07 6.630170987E-02
1.880000000E+01 9.999961112E-01 1.696740832E-07 6.594904120E-02
1.890000000E+01 9.999961523E-01 1.678833403E-07 6.560010448E-02
1.900000000E+01 9.999961927E-01 1.661207977E-07 6.525484077E-02
1.910000000E+01 9.999962312E-01 1.528450036E-07 6.491319239E-02
1.920000000E+01 9.999962702E-01 1.498663688E-07 6.457510284E-02
1.930000000E+01 9.999963086E-01 1.469553626E-07 6.424051682E-02
1.940000000E+01 9.999963464E-01 1.441101555E-07 6.390938013E-02
1.950000000E+01 9.999963836E-01 1.413289757E-07 6.358163972E-02
1.960000000E+01 9.999964203E-01 1.386101075E-07 6.325724360E-02
1.970000000E+01 9.999964564E-01 1.359518888E-07 6.293614084E-02
1.980000000E+01 9.999964920E-01 1.333527094E-07 6.261828154E-02
1.990000000E+01 9.999965271E-01 1.315038544E-07 6.230361681E-02
2.000000000E+01 9.999965617E-01 1.301921034E-07 6.199209873E-02
2.010000000E+01 9.999965958E-01 1.288998821E-07 6.168368033E-02
2.020000000E+01 9.999966295E-01 1.276268046E-07 6.137831557E-02
2.030000000E+01 9.999966626E-01 1.263724948E-07 6.107595934E-02
2.040000000E+01 9.999966952E-01 1.251365854E-07 6.077656738E-02
2.050000000E+01 9.999967274E-01 1.239187183E-07 6.048009632E-02
2.060000000E+01 9.999967591E-01 1.227185441E-07 6.018650362E-02
2.070000000E+01 9.999967903E-01 1.215357216E-07 5.989574756E-02
2.080000000E+01 9.999968211E-01 1.203699181E-07 5.960778724E-02
2.090000000E+01 9.999968515E-01 1.192208085E-07 5.932258252E-02
2.100000000E+01 9.999968814E-01 1.068740560E-07 5.904009403E-02
2.110000000E+01 9.999969109E-01 1.049610782E-07 5.876028316E-02
2.120000000E+01 9.999969399E-01 1.030877859E-07 5.848311201E-02
2.130000000E+01 9.999969686E-01 1.012531993E-07 5.820854341E-02
2.140000000E+01 9.999969969E-01 9.945636667E-08 5.793654087E-02
2.150000000E+01 9.999970247E-01 9.769636383E-08 5.766706859E-02
2.160000000E+01 9.999970522E-01 9.597229301E-08 5.740009142E-02
2.170000000E+01 9.999970793E-01 9.428328207E-08 5.713557487E-02
2.180000000E+01 9.999971061E-01 9.262848364E-08 5.687348507E-02
2.190000000E+01 9.999971324E-01 9.100707432E-08 5.661378879E-02
2.200000000E+01 9.999971584E-01 8.941825388E-08 5.635645339E-02
2.210000000E+01 9.999971841E-01 8.786124453E-08 5.610144681E-02
2.220000000E+01 9.999972094E-01 8.691154191E-08 5.584873759E-02
2.230000000E+01 9.999972344E-01 8.613381390E-08 5.559829482E-02
2.240000000E+01 9.999972590E-01 8.536647862E-08 5.535008815E-02
2.250000000E+01 9.999972833E-01 8.460935173E-08 5.510408776E-02
2.260000000E+01 9.999973073E-01 8.386225295E-08 5.486026436E-02
2.270000000E+01 9.999973310E-01 8.312500595E-08 5.461858919E-02
2.280000000E+01 9.999973543E-01 8.239743828E-08 5.437903397E-02
2.290000000E+01 9.999973774E-01 8.167938124E-08 5.414157094E-02
2.300000000E+01 9.999974002E-01 8.097066978E-08 5.390617281E-02
2.310000000E+01 9.999974226E-01 8.027114244E-08 5.367281275E-02
2.320000000E+01 9.999974448E-01 7.958064119E-08 5.344146442E-02
2.330000000E+01 9.999974667E-01 7.889901143E-08 5.321210191E-02
2.340000000E+01 9.999974883E-01 7.822610182E-08 5.298469977E-02
2.350000000E+01 9.999975096E-01 7.756176426E-08 5.275923296E-02
2.360000000E+01 9.999975315E-01 6.861492842E-08 5.253567689E-02
2.370000000E+01 9.999975523E-01 6.751805590E-08 5.231400737E-02
2.380000000E+01 9.999975729E-01 6.644148213E-08 5.209420061E-02
2.390000000E+01 9.999975932E-01 6.538475995E-08 5.187623325E-02
2.400000000E+01 9.999976133E-01 6.434745375E-08 5.166008227E-02
2.410000000E+01 9.999976331E-01 6.332913912E-08 5.144572509E-02
2.420000000E+01 9.999976527E-01 6.232940248E-08 5.123313945E-02
2.430000000E+01 9.999976720E-01 6.134784083E-08 5.102230348E-02
2.440000000E+01 9.999976911E-01 6.038406138E-08 5.081319568E-02
2.450000000E+01 9.999977099E-01 5.943768129E-08 5.060579488E-02
2.460000000E+01 9.999977286E-01 5.850832736E-08 5.040008027E-02
2.470000000E+01 9.999977470E-01 5.759563574E-08 5.019603136E-02
2.480000000E+01 9.999977651E-01 5.669925172E-08 4.999362801E-02
2.490000000E+01 9.999977831E-01 5.581882938E-08 4.979285038E-02
2.500000000E+01 9.999978008E-01 5.495403142E-08 4.959367898E-02
2.510000000E+01 9.999978184E-01 5.410452885E-08 4.939609460E-02
2.520000000E+01 9.999978357E-01 5.327000080E-08 4.920007836E-02
2.530000000E+01 9.999978528E-01 5.273330186E-08 4.900561164E-02
2.540000000E+01 9.999978697E-01 5.231889637E-08 4.881267616E-02
2.550000000E+01 9.999978863E-01 5.190935669E-08 4.862125391E-02
2.560000000E+01 9.999979028E-01 5.150460691E-08 4.843132713E-02
2.570000000E+01 9.999979191E-01 5.110457264E-08 4.824287839E-02
2.580000000E+01 9.999979352E-01 5.070918092E-08 4.805589049E-02
2.590000000E+01 9.999979511E-01 5.031836017E-08 4.787034651E-02
2.600000000E+01 9.999979668E-01 4.993204021E-08 4.768622979E-02
2.610000000E+01 9.999979824E-01 4.955015221E-08 4.750352393E-02
2.620000000E+01 9.999979978E-01 4.917262861E-08 4.732221277E-02
2.630000000E+01 9.999980130E-01 4.879940318E-08 4.714228040E-02
2.640000000E+01 9.999980280E-01 4.843041091E-08 4.696371116E-02
2.650000000E+01 9.999980428E-01 4.806558802E-08 4.678648961E-02
2.660000000E+01 9.999980575E-01 4.770487193E-08 4.661060055E-02
2.670000000E+01 9.999980721E-01 4.734820124E-08 4.643602901E-02
2.680000000E+01 9.999980874E-01 4.215122556E-08 4.626276025E-02
2.690000000E+01 9.999981017E-01 4.155134948E-08 4.609077972E-02
2.700000000E+01 9.999981158E-01 4.096129828E-08 4.592007313E-02
2.710000000E+01 9.999981297E-01 4.038088065E-08 4.575062637E-02
2.720000000E+01 9.999981435E-01 3.980990964E-08 4.558242554E-02
2.730000000E+01 9.999981572E-01 3.924820256E-08 4.541545694E-02
2.740000000E+01 9.999981706E-01 3.869558085E-08 4.524970710E-02
2.750000000E+01 9.999981840E-01 3.815186996E-08 4.508516271E-02
2.760000000E+01 9.999981972E-01 3.761689928E-08 4.492181067E-02
2.770000000E+01 9.999982102E-01 3.709050203E-08 4.475963807E-02
2.780000000E+01 9.999982231E-01 3.657251514E-08 4.459863218E-02
2.790000000E+01 9.999982359E-01 3.606277919E-08 4.443878045E-02
2.800000000E+01 9.999982485E-01 3.556113826E-08 4.428007052E-02
2.810000000E+01 9.999982610E-01 3.506743990E-08 4.412249020E-02
2.820000000E+01 9.999982734E-01 3.458153503E-08 4.396602747E-02
2.830000000E+01 9.999982856E-01 3.410327781E-08 4.381067048E-02
2.840000000E+01 9.999982977E-01 3.363252562E-08 4.365640756E-02
2.850000000E+01 9.999983097E-01 3.327608119E-08 4.350322718E-02
2.860000000E+01 9.999983215E-01 3.304378814E-08 4.335111799E-02
2.870000000E+01 9.999983331E-01 3.281391901E-08 4.320006880E-02
2.880000000E+01 9.999983447E-01 3.258644018E-08 4.305006856E-02
2.890000000E+01 9.999983561E-01 3.236131864E-08 4.290110639E-02
2.900000000E+01 9.999983674E-01 3.213852193E-08 4.275317154E-02
2.910000000E+01 9.999983786E-01 3.191801814E-08 4.260625342E-02
2.920000000E+01 9.999983897E-01 3.169977593E-08 4.246034160E-02
2.930000000E+01 9.999984007E-01 3.148376445E-08 4.231542575E-02
2.940000000E+01 9.999984116E-01 3.126995343E-08 4.217149573E-02
2.950000000E+01 9.999984223E-01 3.105831307E-08 4.202854151E-02
2.960000000E+01 9.999984330E-01 3.084881408E-08 4.188655320E-02
2.970000000E+01 9.999984435E-01 3.064142768E-08 4.174552103E-02
2.980000000E+01 9.999984539E-01 3.043612556E-08 4.160543539E-02
2.990000000E+01 9.999984642E-01 3.023287988E-08 4.146628678E-02
3.000000000E+01 9.999984745E-01 3.003166327E-08 4.132806582E-02
3.010000000E+01 9.999984846E-01 2.983244881E-08 4.119076328E-02
3.020000000E+01 9.999984955E-01 2.658518852E-08 4.105437002E-02
3.030000000E+01 9.999985055E-01 2.624713832E-08 4.091887705E-02
3.040000000E+01 9.999985153E-01 2.591401790E-08 4.078427548E-02
3.050000000E+01 9.999985251E-01 2.558574186E-08 4.065055654E-02
3.060000000E+01 9.999985348E-01 2.526222650E-08 4.051771159E-02
3.070000000E+01 9.999985443E-01 2.494338983E-08 4.038573207E-02
3.080000000E+01 9.999985538E-01 2.462915151E-08 4.025460956E-02
3.090000000E+01 9.999985632E-01 2.431943281E-08 4.012433575E-02
3.100000000E+01 9.999985725E-01 2.401415660E-08 3.999490241E-02
3.110000000E+01 9.999985817E-01 2.371324725E-08 3.986630143E-02
3.120000000E+01 9.999985908E-01 2.341663068E-08 3.973852483E-02
3.130000000E+01 9.999985999E-01 2.312423426E-08 3.961156468E-02
3.140000000E+01 9.999986088E-01 2.283598678E-08 3.948541320E-02
3.150000000E+01 9.999986177E-01 2.255181847E-08 3.936006269E-02
3.160000000E+01 9.999986265E-01 2.227166091E-08 3.923550552E-02
3.170000000E+01 9.999986352E-01 2.199544703E-08 3.911173421E-02
