# 06/07/2023 
# Density retrieved from www.chemicool.com/densities.html 
# Includes the real (n) and complex (k) part of the  refractive index. 
# Element, P  (Z = 15) 
# Nominal density, g cm-3 =  1.82 
#    E [keV]      n       k    Wavelength [nm] 
1.000000000E-01 9.941184329E-01 1.286876883E-03 1.239841975E+01
2.000000000E-01 9.952871195E-01 6.629743558E-03 6.199209873E+00
3.000000000E-01 9.965410764E-01 2.036060085E-03 4.132806582E+00
4.000000000E-01 9.978643172E-01 7.978007390E-04 3.099604936E+00
5.000000000E-01 9.985992979E-01 3.742411711E-04 2.479683949E+00
6.000000000E-01 9.990226854E-01 1.988693145E-04 2.066403291E+00
7.000000000E-01 9.992838308E-01 1.155643969E-04 1.771202821E+00
8.000000000E-01 9.994545655E-01 7.197805782E-05 1.549802468E+00
9.000000000E-01 9.995717104E-01 4.726081748E-05 1.377602194E+00
1.000000000E+00 9.996548871E-01 3.243913771E-05 1.239841975E+00
1.100000000E+00 9.997167617E-01 2.258916401E-05 1.127129068E+00
1.200000000E+00 9.997639011E-01 1.624386161E-05 1.033201645E+00
1.300000000E+00 9.998005273E-01 1.200421508E-05 9.537245958E-01
1.400000000E+00 9.998295724E-01 9.092211835E-06 8.856014104E-01
1.500000000E+00 9.998530301E-01 7.027906551E-06 8.265613164E-01
1.600000000E+00 9.998723012E-01 5.527886288E-06 7.749012341E-01
1.700000000E+00 9.998884234E-01 4.415316663E-06 7.293188086E-01
1.800000000E+00 9.999022837E-01 3.576850137E-06 6.888010970E-01
1.900000000E+00 9.999146379E-01 2.932206618E-06 6.525484077E-01
2.000000000E+00 9.999268857E-01 2.429276373E-06 6.199209873E-01
2.100000000E+00 9.999396239E-01 2.030931218E-06 5.904009403E-01
2.200000000E+00 9.999431674E-01 2.010426709E-05 5.635645339E-01
2.300000000E+00 9.999420339E-01 1.733785356E-05 5.390617281E-01
2.400000000E+00 9.999432423E-01 1.496730184E-05 5.166008227E-01
2.500000000E+00 9.999459925E-01 1.291983027E-05 4.959367898E-01
2.600000000E+00 9.999489096E-01 1.120737578E-05 4.768622979E-01
2.700000000E+00 9.999518174E-01 9.764386352E-06 4.592007313E-01
2.800000000E+00 9.999546653E-01 8.565671439E-06 4.428007052E-01
2.900000000E+00 9.999573065E-01 7.544601415E-06 4.275317154E-01
3.000000000E+00 9.999598056E-01 6.673952924E-06 4.132806582E-01
3.100000000E+00 9.999620981E-01 5.921240401E-06 3.999490241E-01
3.200000000E+00 9.999642576E-01 5.273179964E-06 3.874506171E-01
3.300000000E+00 9.999662414E-01 4.708057849E-06 3.757096893E-01
3.400000000E+00 9.999680915E-01 4.220871481E-06 3.646594043E-01
3.500000000E+00 9.999697999E-01 3.794145597E-06 3.542405642E-01
3.600000000E+00 9.999713848E-01 3.420859029E-06 3.444005485E-01
3.700000000E+00 9.999728569E-01 3.093143334E-06 3.350924256E-01
3.800000000E+00 9.999742193E-01 2.802420158E-06 3.262742038E-01
3.900000000E+00 9.999754920E-01 2.548559053E-06 3.179081986E-01
4.000000000E+00 9.999766728E-01 2.321586719E-06 3.099604936E-01
4.100000000E+00 9.999777618E-01 2.119584377E-06 3.024004816E-01
4.200000000E+00 9.999787670E-01 1.939640782E-06 2.952004701E-01
4.300000000E+00 9.999797056E-01 1.777508114E-06 2.883353429E-01
4.400000000E+00 9.999805999E-01 1.629933258E-06 2.817822670E-01
4.500000000E+00 9.999814446E-01 1.495855577E-06 2.755204388E-01
4.600000000E+00 9.999822354E-01 1.374367595E-06 2.695308640E-01
4.700000000E+00 9.999829798E-01 1.266123076E-06 2.637961648E-01
4.800000000E+00 9.999836799E-01 1.168575450E-06 2.583004114E-01
4.900000000E+00 9.999843377E-01 1.079630905E-06 2.530289744E-01
5.000000000E+00 9.999849577E-01 9.993709100E-07 2.479683949E-01
5.100000000E+00 9.999855430E-01 9.269779839E-07 2.431062695E-01
5.200000000E+00 9.999860948E-01 8.606035882E-07 2.384311490E-01
5.300000000E+00 9.999866156E-01 7.997138797E-07 2.339324480E-01
5.400000000E+00 9.999871091E-01 7.450255483E-07 2.296003657E-01
5.500000000E+00 9.999875759E-01 6.946380323E-07 2.254258136E-01
5.600000000E+00 9.999880177E-01 6.481533704E-07 2.214003526E-01
5.700000000E+00 9.999884368E-01 6.056213492E-07 2.175161359E-01
5.800000000E+00 9.999888348E-01 5.668888266E-07 2.137658577E-01
5.900000000E+00 9.999892127E-01 5.310026388E-07 2.101427076E-01
6.000000000E+00 9.999895716E-01 4.977165240E-07 2.066403291E-01
6.100000000E+00 9.999899133E-01 4.671994524E-07 2.032527827E-01
6.200000000E+00 9.999902387E-01 4.392104825E-07 1.999745120E-01
6.300000000E+00 9.999905486E-01 4.131499791E-07 1.968003134E-01
6.400000000E+00 9.999908440E-01 3.888613502E-07 1.937253085E-01
6.500000000E+00 9.999911258E-01 3.664004706E-07 1.907449192E-01
6.600000000E+00 9.999913951E-01 3.458175727E-07 1.878548446E-01
6.700000000E+00 9.999916523E-01 3.265681235E-07 1.850510410E-01
6.800000000E+00 9.999918982E-01 3.085501735E-07 1.823297021E-01
6.900000000E+00 9.999921333E-01 2.916708151E-07 1.796872427E-01
7.000000000E+00 9.999923585E-01 2.761898169E-07 1.771202821E-01
7.100000000E+00 9.999925743E-01 2.617142869E-07 1.746256302E-01
7.200000000E+00 9.999927810E-01 2.481131502E-07 1.722002742E-01
7.300000000E+00 9.999929793E-01 2.353240399E-07 1.698413664E-01
7.400000000E+00 9.999931694E-01 2.233085111E-07 1.675462128E-01
7.500000000E+00 9.999933521E-01 2.122412878E-07 1.653122633E-01
7.600000000E+00 9.999935275E-01 2.018074303E-07 1.631371019E-01
7.700000000E+00 9.999936961E-01 1.919640940E-07 1.610184383E-01
7.800000000E+00 9.999938582E-01 1.826718019E-07 1.589540993E-01
7.900000000E+00 9.999940141E-01 1.738941426E-07 1.569420221E-01
8.000000000E+00 9.999941642E-01 1.658052712E-07 1.549802468E-01
8.100000000E+00 9.999943088E-01 1.581554736E-07 1.530669104E-01
8.200000000E+00 9.999944480E-01 1.509124708E-07 1.512002408E-01
8.300000000E+00 9.999945822E-01 1.440506891E-07 1.493785512E-01
8.400000000E+00 9.999947116E-01 1.375464237E-07 1.476002351E-01
8.500000000E+00 9.999948364E-01 1.314535470E-07 1.458637617E-01
8.600000000E+00 9.999949568E-01 1.257324151E-07 1.441676715E-01
8.700000000E+00 9.999950731E-01 1.202983198E-07 1.425105718E-01
8.800000000E+00 9.999951854E-01 1.151342270E-07 1.408911335E-01
8.900000000E+00 9.999952939E-01 1.102242785E-07 1.393080870E-01
9.000000000E+00 9.999953987E-01 1.055536994E-07 1.377602194E-01
9.100000000E+00 9.999955002E-01 1.010976853E-07 1.362463708E-01
9.200000000E+00 9.999955983E-01 9.685051091E-08 1.347654320E-01
9.300000000E+00 9.999956933E-01 9.280503245E-08 1.333163414E-01
9.400000000E+00 9.999957852E-01 8.894997295E-08 1.318980824E-01
9.500000000E+00 9.999958742E-01 8.527478779E-08 1.305096815E-01
9.600000000E+00 9.999959604E-01 8.176961041E-08 1.291502057E-01
9.700000000E+00 9.999960440E-01 7.845593290E-08 1.278187603E-01
9.800000000E+00 9.999961251E-01 7.533057230E-08 1.265144872E-01
9.900000000E+00 9.999962036E-01 7.234517646E-08 1.252365631E-01
1.000000000E+01 9.999962799E-01 6.949237273E-08 1.239841975E-01
1.010000000E+01 9.999963538E-01 6.676523957E-08 1.227566311E-01
1.020000000E+01 9.999964256E-01 6.415727497E-08 1.215531348E-01
1.030000000E+01 9.999964953E-01 6.166236747E-08 1.203730072E-01
1.040000000E+01 9.999965630E-01 5.932826254E-08 1.192155745E-01
1.050000000E+01 9.999966287E-01 5.710892151E-08 1.180801881E-01
1.060000000E+01 9.999966926E-01 5.498263988E-08 1.169662240E-01
1.070000000E+01 9.999967547E-01 5.294482917E-08 1.158730817E-01
1.080000000E+01 9.999968151E-01 5.099116378E-08 1.148001828E-01
1.090000000E+01 9.999968738E-01 4.911756375E-08 1.137469701E-01
1.100000000E+01 9.999969308E-01 4.732017882E-08 1.127129068E-01
1.110000000E+01 9.999969864E-01 4.564257528E-08 1.116974752E-01
1.120000000E+01 9.999970404E-01 4.405189262E-08 1.107001763E-01
1.130000000E+01 9.999970930E-01 4.252366864E-08 1.097205287E-01
1.140000000E+01 9.999971443E-01 4.105501452E-08 1.087580679E-01
1.150000000E+01 9.999971941E-01 3.964319681E-08 1.078123456E-01
1.160000000E+01 9.999972427E-01 3.828562792E-08 1.068829288E-01
1.170000000E+01 9.999972900E-01 3.697985718E-08 1.059693995E-01
1.180000000E+01 9.999973362E-01 3.572469884E-08 1.050713538E-01
1.190000000E+01 9.999973811E-01 3.455009612E-08 1.041884012E-01
1.200000000E+01 9.999974250E-01 3.341897423E-08 1.033201645E-01
1.210000000E+01 9.999974677E-01 3.232943687E-08 1.024662789E-01
1.220000000E+01 9.999975094E-01 3.127968396E-08 1.016263914E-01
1.230000000E+01 9.999975501E-01 3.026800604E-08 1.008001605E-01
1.240000000E+01 9.999975898E-01 2.929277909E-08 9.998725601E-02
1.250000000E+01 9.999976285E-01 2.835245961E-08 9.918735797E-02
1.260000000E+01 9.999976663E-01 2.744558009E-08 9.840015671E-02
1.270000000E+01 9.999977032E-01 2.659832379E-08 9.762535233E-02
1.280000000E+01 9.999977392E-01 2.578275049E-08 9.686265426E-02
1.290000000E+01 9.999977744E-01 2.499530171E-08 9.611178098E-02
1.300000000E+01 9.999978088E-01 2.423483464E-08 9.537245958E-02
1.310000000E+01 9.999978424E-01 2.350026052E-08 9.464442554E-02
1.320000000E+01 9.999978752E-01 2.279054171E-08 9.392742232E-02
1.330000000E+01 9.999979073E-01 2.210468896E-08 9.322120110E-02
1.340000000E+01 9.999979386E-01 2.144175879E-08 9.252552049E-02
1.350000000E+01 9.999979693E-01 2.080595015E-08 9.184014627E-02
1.360000000E+01 9.999979993E-01 2.020735629E-08 9.116485107E-02
1.370000000E+01 9.999980286E-01 1.962818472E-08 9.049941420E-02
1.380000000E+01 9.999980573E-01 1.906769209E-08 8.984362135E-02
1.390000000E+01 9.999980853E-01 1.852516821E-08 8.919726436E-02
1.400000000E+01 9.999981128E-01 1.799993431E-08 8.856014104E-02
1.410000000E+01 9.999981397E-01 1.749134148E-08 8.793205493E-02
1.420000000E+01 9.999981660E-01 1.699876918E-08 8.731281511E-02
1.430000000E+01 9.999981917E-01 1.652162375E-08 8.670223598E-02
1.440000000E+01 9.999982169E-01 1.605933718E-08 8.610013712E-02
1.450000000E+01 9.999982416E-01 1.562530906E-08 8.550634307E-02
1.460000000E+01 9.999982658E-01 1.520548978E-08 8.492068319E-02
1.470000000E+01 9.999982895E-01 1.479838063E-08 8.434299147E-02
1.480000000E+01 9.999983126E-01 1.440352766E-08 8.377310639E-02
1.490000000E+01 9.999983354E-01 1.402049580E-08 8.321087078E-02
1.500000000E+01 9.999983576E-01 1.364886796E-08 8.265613164E-02
1.510000000E+01 9.999983795E-01 1.328824420E-08 8.210874004E-02
1.520000000E+01 9.999984009E-01 1.293824092E-08 8.156855096E-02
1.530000000E+01 9.999984218E-01 1.259849007E-08 8.103542318E-02
1.540000000E+01 9.999984424E-01 1.226863846E-08 8.050921913E-02
1.550000000E+01 9.999984626E-01 1.195852925E-08 7.998980481E-02
1.560000000E+01 9.999984824E-01 1.165744490E-08 7.947704965E-02
1.570000000E+01 9.999985017E-01 1.136490145E-08 7.897082641E-02
1.580000000E+01 9.999985208E-01 1.108061300E-08 7.847101105E-02
1.590000000E+01 9.999985394E-01 1.080430479E-08 7.797748268E-02
1.600000000E+01 9.999985578E-01 1.053571272E-08 7.749012341E-02
1.610000000E+01 9.999985757E-01 1.027458289E-08 7.700881830E-02
1.620000000E+01 9.999985934E-01 1.002067111E-08 7.653345522E-02
1.630000000E+01 9.999986107E-01 9.773742506E-09 7.606392482E-02
1.640000000E+01 9.999986277E-01 9.533571109E-09 7.560012040E-02
1.650000000E+01 9.999986444E-01 9.302806209E-09 7.514193785E-02
1.660000000E+01 9.999986607E-01 9.083099179E-09 7.468927558E-02
1.670000000E+01 9.999986768E-01 8.869249234E-09 7.424203441E-02
1.680000000E+01 9.999986926E-01 8.661071978E-09 7.380011753E-02
1.690000000E+01 9.999987082E-01 8.458389787E-09 7.336343045E-02
1.700000000E+01 9.999987234E-01 8.261031518E-09 7.293188086E-02
1.710000000E+01 9.999987384E-01 8.068832246E-09 7.250537863E-02
1.720000000E+01 9.999987531E-01 7.881632996E-09 7.208383573E-02
1.730000000E+01 9.999987675E-01 7.699280504E-09 7.166716616E-02
1.740000000E+01 9.999987817E-01 7.521626981E-09 7.125528590E-02
1.750000000E+01 9.999987957E-01 7.348529886E-09 7.084811283E-02
1.760000000E+01 9.999988094E-01 7.179914013E-09 7.044556674E-02
1.770000000E+01 9.999988229E-01 7.021051205E-09 7.004756919E-02
1.780000000E+01 9.999988362E-01 6.866161274E-09 6.965404352E-02
1.790000000E+01 9.999988492E-01 6.715126816E-09 6.926491478E-02
1.800000000E+01 9.999988620E-01 6.567834475E-09 6.888010970E-02
1.810000000E+01 9.999988747E-01 6.424174783E-09 6.849955661E-02
1.820000000E+01 9.999988871E-01 6.284042005E-09 6.812318542E-02
1.830000000E+01 9.999988992E-01 6.147333997E-09 6.775092757E-02
1.840000000E+01 9.999989112E-01 6.013952062E-09 6.738271601E-02
1.850000000E+01 9.999989230E-01 5.883800820E-09 6.701848511E-02
1.860000000E+01 9.999989347E-01 5.756788078E-09 6.665817068E-02
1.870000000E+01 9.999989461E-01 5.632824711E-09 6.630170987E-02
1.880000000E+01 9.999989573E-01 5.511824540E-09 6.594904120E-02
1.890000000E+01 9.999989684E-01 5.396997236E-09 6.560010448E-02
1.900000000E+01 9.999989793E-01 5.285392971E-09 6.525484077E-02
1.910000000E+01 9.999989900E-01 5.176393283E-09 6.491319239E-02
1.920000000E+01 9.999990005E-01 5.069926352E-09 6.457510284E-02
1.930000000E+01 9.999990109E-01 4.965922672E-09 6.424051682E-02
1.940000000E+01 9.999990211E-01 4.864314957E-09 6.390938013E-02
1.950000000E+01 9.999990312E-01 4.765038069E-09 6.358163972E-02
1.960000000E+01 9.999990411E-01 4.668028933E-09 6.325724360E-02
1.970000000E+01 9.999990509E-01 4.573226467E-09 6.293614084E-02
1.980000000E+01 9.999990605E-01 4.480571505E-09 6.261828154E-02
1.990000000E+01 9.999990699E-01 4.390006732E-09 6.230361681E-02
2.000000000E+01 9.999990793E-01 4.301476614E-09 6.199209873E-02
2.010000000E+01 9.999990884E-01 4.214927339E-09 6.168368033E-02
2.020000000E+01 9.999990975E-01 4.132842005E-09 6.137831557E-02
2.030000000E+01 9.999991064E-01 4.052868375E-09 6.107595934E-02
2.040000000E+01 9.999991152E-01 3.974642467E-09 6.077656738E-02
2.050000000E+01 9.999991238E-01 3.898119132E-09 6.048009632E-02
2.060000000E+01 9.999991324E-01 3.823254587E-09 6.018650362E-02
2.070000000E+01 9.999991408E-01 3.750006359E-09 5.989574756E-02
2.080000000E+01 9.999991490E-01 3.678333245E-09 5.960778724E-02
2.090000000E+01 9.999991572E-01 3.608195269E-09 5.932258252E-02
2.100000000E+01 9.999991652E-01 3.539553638E-09 5.904009403E-02
2.110000000E+01 9.999991732E-01 3.472370701E-09 5.876028316E-02
2.120000000E+01 9.999991810E-01 3.406609913E-09 5.848311201E-02
2.130000000E+01 9.999991887E-01 3.342235797E-09 5.820854341E-02
2.140000000E+01 9.999991963E-01 3.279213909E-09 5.793654087E-02
2.150000000E+01 9.999992038E-01 3.217532771E-09 5.766706859E-02
2.160000000E+01 9.999992112E-01 3.159098369E-09 5.740009142E-02
2.170000000E+01 9.999992184E-01 3.101864148E-09 5.713557487E-02
2.180000000E+01 9.999992256E-01 3.045800952E-09 5.687348507E-02
2.190000000E+01 9.999992327E-01 2.990880455E-09 5.661378879E-02
2.200000000E+01 9.999992397E-01 2.937075130E-09 5.635645339E-02
2.210000000E+01 9.999992466E-01 2.884358222E-09 5.610144681E-02
2.220000000E+01 9.999992534E-01 2.832703729E-09 5.584873759E-02
2.230000000E+01 9.999992601E-01 2.782086372E-09 5.559829482E-02
2.240000000E+01 9.999992667E-01 2.732481572E-09 5.535008815E-02
2.250000000E+01 9.999992733E-01 2.683865434E-09 5.510408776E-02
2.260000000E+01 9.999992797E-01 2.636214717E-09 5.486026436E-02
2.270000000E+01 9.999992861E-01 2.589506820E-09 5.461858919E-02
2.280000000E+01 9.999992923E-01 2.543719757E-09 5.437903397E-02
2.290000000E+01 9.999992985E-01 2.498832141E-09 5.414157094E-02
2.300000000E+01 9.999993046E-01 2.455105173E-09 5.390617281E-02
2.310000000E+01 9.999993107E-01 2.413440752E-09 5.367281275E-02
2.320000000E+01 9.999993166E-01 2.372576719E-09 5.344146442E-02
2.330000000E+01 9.999993225E-01 2.332494881E-09 5.321210191E-02
2.340000000E+01 9.999993283E-01 2.293177527E-09 5.298469977E-02
2.350000000E+01 9.999993340E-01 2.254607417E-09 5.275923296E-02
2.360000000E+01 9.999993397E-01 2.216767762E-09 5.253567689E-02
2.370000000E+01 9.999993453E-01 2.179642214E-09 5.231400737E-02
2.380000000E+01 9.999993508E-01 2.143214853E-09 5.209420061E-02
2.390000000E+01 9.999993562E-01 2.107470174E-09 5.187623325E-02
2.400000000E+01 9.999993616E-01 2.072393072E-09 5.166008227E-02
2.410000000E+01 9.999993669E-01 2.037968833E-09 5.144572509E-02
2.420000000E+01 9.999993721E-01 2.004183123E-09 5.123313945E-02
2.430000000E+01 9.999993773E-01 1.971021972E-09 5.102230348E-02
2.440000000E+01 9.999993824E-01 1.938471770E-09 5.081319568E-02
2.450000000E+01 9.999993875E-01 1.906519251E-09 5.060579488E-02
2.460000000E+01 9.999993925E-01 1.875434564E-09 5.040008027E-02
2.470000000E+01 9.999993974E-01 1.845592864E-09 5.019603136E-02
2.480000000E+01 9.999994022E-01 1.816288014E-09 4.999362801E-02
2.490000000E+01 9.999994071E-01 1.787508586E-09 4.979285038E-02
2.500000000E+01 9.999994118E-01 1.759243440E-09 4.959367898E-02
2.510000000E+01 9.999994165E-01 1.731481708E-09 4.939609460E-02
2.520000000E+01 9.999994211E-01 1.704212793E-09 4.920007836E-02
2.530000000E+01 9.999994257E-01 1.677426356E-09 4.900561164E-02
2.540000000E+01 9.999994302E-01 1.651112314E-09 4.881267616E-02
2.550000000E+01 9.999994347E-01 1.625260828E-09 4.862125391E-02
2.560000000E+01 9.999994391E-01 1.599862299E-09 4.843132713E-02
2.570000000E+01 9.999994435E-01 1.574907361E-09 4.824287839E-02
2.580000000E+01 9.999994478E-01 1.550386873E-09 4.805589049E-02
2.590000000E+01 9.999994521E-01 1.526291915E-09 4.787034651E-02
2.600000000E+01 9.999994563E-01 1.502613779E-09 4.768622979E-02
2.610000000E+01 9.999994605E-01 1.479343967E-09 4.750352393E-02
2.620000000E+01 9.999994646E-01 1.456474181E-09 4.732221277E-02
2.630000000E+01 9.999994687E-01 1.434124750E-09 4.714228040E-02
2.640000000E+01 9.999994727E-01 1.412366027E-09 4.696371116E-02
2.650000000E+01 9.999994767E-01 1.390976029E-09 4.678648961E-02
2.660000000E+01 9.999994807E-01 1.369947384E-09 4.661060055E-02
2.670000000E+01 9.999994845E-01 1.349272894E-09 4.643602901E-02
2.680000000E+01 9.999994884E-01 1.328945525E-09 4.626276025E-02
2.690000000E+01 9.999994922E-01 1.308958408E-09 4.609077972E-02
2.700000000E+01 9.999994960E-01 1.289304834E-09 4.592007313E-02
2.710000000E+01 9.999994997E-01 1.269978245E-09 4.575062637E-02
2.720000000E+01 9.999995034E-01 1.250972237E-09 4.558242554E-02
2.730000000E+01 9.999995070E-01 1.232280548E-09 4.541545694E-02
2.740000000E+01 9.999995106E-01 1.213897064E-09 4.524970710E-02
2.750000000E+01 9.999995142E-01 1.195815804E-09 4.508516271E-02
2.760000000E+01 9.999995177E-01 1.178030927E-09 4.492181067E-02
2.770000000E+01 9.999995212E-01 1.160536721E-09 4.475963807E-02
2.780000000E+01 9.999995247E-01 1.143327602E-09 4.459863218E-02
2.790000000E+01 9.999995281E-01 1.126398114E-09 4.443878045E-02
2.800000000E+01 9.999995314E-01 1.109742919E-09 4.428007052E-02
2.810000000E+01 9.999995348E-01 1.093473403E-09 4.412249020E-02
2.820000000E+01 9.999995381E-01 1.077833369E-09 4.396602747E-02
2.830000000E+01 9.999995413E-01 1.062442126E-09 4.381067048E-02
2.840000000E+01 9.999995446E-01 1.047295008E-09 4.365640756E-02
2.850000000E+01 9.999995478E-01 1.032387453E-09 4.350322718E-02
2.860000000E+01 9.999995509E-01 1.017714998E-09 4.335111799E-02
2.870000000E+01 9.999995541E-01 1.003273277E-09 4.320006880E-02
2.880000000E+01 9.999995572E-01 9.890580180E-10 4.305006856E-02
2.890000000E+01 9.999995602E-01 9.750650411E-10 4.290110639E-02
2.900000000E+01 9.999995633E-01 9.612902573E-10 4.275317154E-02
2.910000000E+01 9.999995663E-01 9.477296648E-10 4.260625342E-02
2.920000000E+01 9.999995693E-01 9.343793475E-10 4.246034160E-02
2.930000000E+01 9.999995722E-01 9.212354725E-10 4.231542575E-02
2.940000000E+01 9.999995751E-01 9.082942888E-10 4.217149573E-02
2.950000000E+01 9.999995780E-01 8.955521244E-10 4.202854151E-02
2.960000000E+01 9.999995809E-01 8.830053850E-10 4.188655320E-02
2.970000000E+01 9.999995837E-01 8.706505521E-10 4.174552103E-02
2.980000000E+01 9.999995865E-01 8.584841807E-10 4.160543539E-02
2.990000000E+01 9.999995893E-01 8.465028982E-10 4.146628678E-02
3.000000000E+01 9.999995920E-01 8.347034019E-10 4.132806582E-02
3.010000000E+01 9.999995947E-01 8.234718087E-10 4.119076328E-02
3.020000000E+01 9.999995974E-01 8.124661044E-10 4.105437002E-02
3.030000000E+01 9.999996001E-01 8.016239776E-10 4.091887705E-02
3.040000000E+01 9.999996027E-01 7.909425622E-10 4.078427548E-02
3.050000000E+01 9.999996053E-01 7.804190505E-10 4.065055654E-02
3.060000000E+01 9.999996079E-01 7.700506923E-10 4.051771159E-02
3.070000000E+01 9.999996104E-01 7.598347930E-10 4.038573207E-02
3.080000000E+01 9.999996130E-01 7.497687130E-10 4.025460956E-02
