# 08/03/2022 
# Density retrieved from www.chemicool.com/densities.html 
# Includes the real (n) and complex (k) part of the  refractive index. 
# Element, Br  (Z = 35) 
# Nominal density, g cm-3 =  3.122 
#    E [keV]      n       k    Wavelength [nm] 
2.000000000E+00 9.998765125E-01 5.091627341E-05 6.199209873E-01
2.100000000E+00 9.998841566E-01 4.294933365E-05 5.904009403E-01
2.200000000E+00 9.998919653E-01 3.658626279E-05 5.635645339E-01
2.300000000E+00 9.998993489E-01 3.132132065E-05 5.390617281E-01
2.400000000E+00 9.999062544E-01 2.695860121E-05 5.166008227E-01
2.500000000E+00 9.999126711E-01 2.336224217E-05 4.959367898E-01
2.600000000E+00 9.999185655E-01 2.035294916E-05 4.768622979E-01
2.700000000E+00 9.999239828E-01 1.786381901E-05 4.592007313E-01
2.800000000E+00 9.999289025E-01 1.569279765E-05 4.428007052E-01
2.900000000E+00 9.999334100E-01 1.387270688E-05 4.275317154E-01
3.000000000E+00 9.999375386E-01 1.235580852E-05 4.132806582E-01
3.100000000E+00 9.999411058E-01 1.094270467E-05 3.999490241E-01
3.200000000E+00 9.999445028E-01 9.763831626E-06 3.874506171E-01
3.300000000E+00 9.999477061E-01 8.684110266E-06 3.757096893E-01
3.400000000E+00 9.999506724E-01 7.808510467E-06 3.646594043E-01
3.500000000E+00 9.999534008E-01 7.001739715E-06 3.542405642E-01
3.600000000E+00 9.999558685E-01 6.289106741E-06 3.444005485E-01
3.700000000E+00 9.999582038E-01 5.696244562E-06 3.350924256E-01
3.800000000E+00 9.999603655E-01 5.135133960E-06 3.262742038E-01
3.900000000E+00 9.999623713E-01 4.659105406E-06 3.179081986E-01
4.000000000E+00 9.999642339E-01 4.241096441E-06 3.099604936E-01
4.100000000E+00 9.999659659E-01 3.866132820E-06 3.024004816E-01
4.200000000E+00 9.999675784E-01 3.532960123E-06 2.952004701E-01
4.300000000E+00 9.999690817E-01 3.236844861E-06 2.883353429E-01
4.400000000E+00 9.999704845E-01 2.976320632E-06 2.817822670E-01
4.500000000E+00 9.999717970E-01 2.733494073E-06 2.755204388E-01
4.600000000E+00 9.999730245E-01 2.521743493E-06 2.695308640E-01
4.700000000E+00 9.999741742E-01 2.334798137E-06 2.637961648E-01
4.800000000E+00 9.999752554E-01 2.152610089E-06 2.583004114E-01
4.900000000E+00 9.999762698E-01 1.994421635E-06 2.530289744E-01
5.000000000E+00 9.999772240E-01 1.850843662E-06 2.479683949E-01
5.100000000E+00 9.999781225E-01 1.720233138E-06 2.431062695E-01
5.200000000E+00 9.999789697E-01 1.600690117E-06 2.384311490E-01
5.300000000E+00 9.999797673E-01 1.498599237E-06 2.339324480E-01
5.400000000E+00 9.999805233E-01 1.395878581E-06 2.296003657E-01
5.500000000E+00 9.999812381E-01 1.302379164E-06 2.254258136E-01
5.600000000E+00 9.999819142E-01 1.218479311E-06 2.214003526E-01
5.700000000E+00 9.999825543E-01 1.142668003E-06 2.175161359E-01
5.800000000E+00 9.999831618E-01 1.071217067E-06 2.137658577E-01
5.900000000E+00 9.999837381E-01 1.006489310E-06 2.101427076E-01
6.000000000E+00 9.999842846E-01 9.490221994E-07 2.066403291E-01
6.100000000E+00 9.999848062E-01 8.908545164E-07 2.032527827E-01
6.200000000E+00 9.999853015E-01 8.392938621E-07 1.999745120E-01
6.300000000E+00 9.999857729E-01 7.924951158E-07 1.968003134E-01
6.400000000E+00 9.999862219E-01 7.492299976E-07 1.937253085E-01
6.500000000E+00 9.999866503E-01 7.086540656E-07 1.907449192E-01
6.600000000E+00 9.999870593E-01 6.706587747E-07 1.878548446E-01
6.700000000E+00 9.999874427E-01 6.507885103E-07 1.850510410E-01
6.800000000E+00 9.999878216E-01 5.986954890E-07 1.823297021E-01
6.900000000E+00 9.999881773E-01 5.672422602E-07 1.796872427E-01
7.000000000E+00 9.999885135E-01 5.491255469E-07 1.771202821E-01
7.100000000E+00 9.999888347E-01 5.337661535E-07 1.746256302E-01
7.200000000E+00 9.999891614E-01 4.845683353E-07 1.722002742E-01
7.300000000E+00 9.999894624E-01 4.602409975E-07 1.698413664E-01
7.400000000E+00 9.999897506E-01 4.380427710E-07 1.675462128E-01
7.500000000E+00 9.999900221E-01 4.264395047E-07 1.653122633E-01
7.600000000E+00 9.999902830E-01 4.152912420E-07 1.631371019E-01
7.700000000E+00 9.999905512E-01 3.773563439E-07 1.610184383E-01
7.800000000E+00 9.999907972E-01 3.595474700E-07 1.589540993E-01
7.900000000E+00 9.999910337E-01 3.427159275E-07 1.569420221E-01
8.000000000E+00 9.999912565E-01 3.340429944E-07 1.549802468E-01
8.100000000E+00 9.999914711E-01 3.258459327E-07 1.530669104E-01
8.200000000E+00 9.999916930E-01 2.981239627E-07 1.512002408E-01
8.300000000E+00 9.999918967E-01 2.847996903E-07 1.493785512E-01
8.400000000E+00 9.999920930E-01 2.721653776E-07 1.476002351E-01
8.500000000E+00 9.999922799E-01 2.632090379E-07 1.458637617E-01
8.600000000E+00 9.999924584E-01 2.571234855E-07 1.441676715E-01
8.700000000E+00 9.999926308E-01 2.512465714E-07 1.425105718E-01
8.800000000E+00 9.999928126E-01 2.283704265E-07 1.408911335E-01
8.900000000E+00 9.999929772E-01 2.187626587E-07 1.393080870E-01
9.000000000E+00 9.999931363E-01 2.096210347E-07 1.377602194E-01
9.100000000E+00 9.999932874E-01 2.037866349E-07 1.362463708E-01
9.200000000E+00 9.999934326E-01 1.993805676E-07 1.347654320E-01
9.300000000E+00 9.999935730E-01 1.951158659E-07 1.333163414E-01
9.400000000E+00 9.999937249E-01 1.768327080E-07 1.318980824E-01
9.500000000E+00 9.999938603E-01 1.695678708E-07 1.305096815E-01
9.600000000E+00 9.999939914E-01 1.626384464E-07 1.291502057E-01
9.700000000E+00 9.999941167E-01 1.574564163E-07 1.278187603E-01
9.800000000E+00 9.999942362E-01 1.542594149E-07 1.265144872E-01
9.900000000E+00 9.999943520E-01 1.511588023E-07 1.252365631E-01
1.000000000E+01 9.999944795E-01 1.385960150E-07 1.239841975E-01
1.010000000E+01 9.999945924E-01 1.332613066E-07 1.227566311E-01
1.020000000E+01 9.999947019E-01 1.281581932E-07 1.215531348E-01
1.030000000E+01 9.999948080E-01 1.232748365E-07 1.203730072E-01
1.040000000E+01 9.999949083E-01 1.203694088E-07 1.192155745E-01
1.050000000E+01 9.999950048E-01 1.180875760E-07 1.180801881E-01
1.060000000E+01 9.999950986E-01 1.158700183E-07 1.169662240E-01
1.070000000E+01 9.999952072E-01 1.062000613E-07 1.158730817E-01
1.080000000E+01 9.999952999E-01 1.023703403E-07 1.148001828E-01
1.090000000E+01 9.999953899E-01 9.869636162E-08 1.137469701E-01
1.100000000E+01 9.999954774E-01 9.517066485E-08 1.127129068E-01
1.110000000E+01 9.999955597E-01 9.294670983E-08 1.116974752E-01
1.120000000E+01 9.999956386E-01 9.129435680E-08 1.107001763E-01
1.130000000E+01 9.999957155E-01 8.968567717E-08 1.097205287E-01
1.140000000E+01 9.999957903E-01 8.811914526E-08 1.087580679E-01
1.150000000E+01 9.999958879E-01 8.008883682E-08 1.078123456E-01
1.160000000E+01 9.999959634E-01 7.741882354E-08 1.068829288E-01
1.170000000E+01 9.999960368E-01 7.484976351E-08 1.059693995E-01
1.180000000E+01 9.999961081E-01 7.241572811E-08 1.050713538E-01
1.190000000E+01 9.999961733E-01 7.120377079E-08 1.041884012E-01
1.200000000E+01 9.999962368E-01 7.002198598E-08 1.033201645E-01
1.210000000E+01 9.999962987E-01 6.886938038E-08 1.024662789E-01
1.220000000E+01 9.999963914E-01 6.361419025E-08 1.016263914E-01
1.230000000E+01 9.999964574E-01 6.161737684E-08 1.008001605E-01
1.240000000E+01 9.999965216E-01 5.969178308E-08 9.998725601E-02
1.250000000E+01 9.999965841E-01 5.783440859E-08 9.918735797E-02
1.260000000E+01 9.999966449E-01 5.604240019E-08 9.840015671E-02
1.270000000E+01 9.999966981E-01 5.509730110E-08 9.762535233E-02
1.280000000E+01 9.999967495E-01 5.423976865E-08 9.686265426E-02
1.290000000E+01 9.999968527E-01 5.116738989E-08 9.611178098E-02
1.300000000E+01 9.999969182E-01 4.965311478E-08 9.537245958E-02
1.310000000E+01 9.999969819E-01 4.818991460E-08 9.464442554E-02
1.320000000E+01 9.999970438E-01 4.677575229E-08 9.392742232E-02
1.330000000E+01 9.999970887E-01 4.604912904E-08 9.322120110E-02
1.340000000E+01 9.999972526E-01 4.413140381E-08 9.252552049E-02
1.350000000E+01 9.999975823E-01 3.384376936E-07 9.184014627E-02
1.360000000E+01 9.999973334E-01 3.302514395E-07 9.116485107E-02
1.370000000E+01 9.999972668E-01 3.177452320E-07 9.049941420E-02
1.380000000E+01 9.999972789E-01 3.111569420E-07 8.984362135E-02
1.390000000E+01 9.999973179E-01 3.066959683E-07 8.919726436E-02
1.400000000E+01 9.999973561E-01 3.023302451E-07 8.856014104E-02
1.410000000E+01 9.999973310E-01 2.837057422E-07 8.793205493E-02
1.420000000E+01 9.999973518E-01 2.758942350E-07 8.731281511E-02
1.430000000E+01 9.999973725E-01 2.683255359E-07 8.670223598E-02
1.440000000E+01 9.999973931E-01 2.609907382E-07 8.610013712E-02
1.450000000E+01 9.999974279E-01 2.571652145E-07 8.550634307E-02
1.460000000E+01 9.999974630E-01 2.536544677E-07 8.492068319E-02
1.470000000E+01 9.999974974E-01 2.502151249E-07 8.434299147E-02
1.480000000E+01 9.999975311E-01 2.468452627E-07 8.377310639E-02
1.490000000E+01 9.999975354E-01 2.303333123E-07 8.321087078E-02
1.500000000E+01 9.999975626E-01 2.247346235E-07 8.265613164E-02
1.510000000E+01 9.999975894E-01 2.192967192E-07 8.210874004E-02
1.520000000E+01 9.999976158E-01 2.140140813E-07 8.156855096E-02
1.530000000E+01 9.999976417E-01 2.088814137E-07 8.103542318E-02
1.540000000E+01 9.999976673E-01 2.038936318E-07 8.050921913E-02
1.550000000E+01 9.999976972E-01 2.012317345E-07 7.998980481E-02
1.560000000E+01 9.999977266E-01 1.986601094E-07 7.947704965E-02
1.570000000E+01 9.999977555E-01 1.961374669E-07 7.897082641E-02
1.580000000E+01 9.999977838E-01 1.936625710E-07 7.847101105E-02
1.590000000E+01 9.999978116E-01 1.912342242E-07 7.797748268E-02
1.600000000E+01 9.999978233E-01 1.779295712E-07 7.749012341E-02
1.610000000E+01 9.999978478E-01 1.740012853E-07 7.700881830E-02
1.620000000E+01 9.999978718E-01 1.701771675E-07 7.653345522E-02
1.630000000E+01 9.999978955E-01 1.664538998E-07 7.606392482E-02
1.640000000E+01 9.999979188E-01 1.628282883E-07 7.560012040E-02
1.650000000E+01 9.999979426E-01 1.598706921E-07 7.514193785E-02
1.660000000E+01 9.999979673E-01 1.579503408E-07 7.468927558E-02
1.670000000E+01 9.999979916E-01 1.560643835E-07 7.424203441E-02
1.680000000E+01 9.999980154E-01 1.542120037E-07 7.380011753E-02
1.690000000E+01 9.999980388E-01 1.523924089E-07 7.336343045E-02
1.700000000E+01 9.999980618E-01 1.506048302E-07 7.293188086E-02
1.710000000E+01 9.999980752E-01 1.404287283E-07 7.250537863E-02
1.720000000E+01 9.999980962E-01 1.375497357E-07 7.208383573E-02
1.730000000E+01 9.999981168E-01 1.347420269E-07 7.166716616E-02
1.740000000E+01 9.999981371E-01 1.320034778E-07 7.125528590E-02
1.750000000E+01 9.999981570E-01 1.293320386E-07 7.084811283E-02
1.760000000E+01 9.999981767E-01 1.267382950E-07 7.044556674E-02
1.770000000E+01 9.999981972E-01 1.253102692E-07 7.004756919E-02
1.780000000E+01 9.999982174E-01 1.239062437E-07 6.965404352E-02
1.790000000E+01 9.999982373E-01 1.225256835E-07 6.926491478E-02
1.800000000E+01 9.999982568E-01 1.211680687E-07 6.888010970E-02
1.810000000E+01 9.999982760E-01 1.198328935E-07 6.849955661E-02
1.820000000E+01 9.999982899E-01 1.121308860E-07 6.812318542E-02
1.830000000E+01 9.999983077E-01 1.098977847E-07 6.775092757E-02
1.840000000E+01 9.999983253E-01 1.077173428E-07 6.738271601E-02
1.850000000E+01 9.999983426E-01 1.055880744E-07 6.701848511E-02
1.860000000E+01 9.999983596E-01 1.035085424E-07 6.665817068E-02
1.870000000E+01 9.999983764E-01 1.014773571E-07 6.630170987E-02
1.880000000E+01 9.999983929E-01 9.949317462E-08 6.594904120E-02
1.890000000E+01 9.999984098E-01 9.831825831E-08 6.560010448E-02
1.900000000E+01 9.999984265E-01 9.728605277E-08 6.525484077E-02
1.910000000E+01 9.999984429E-01 9.627001741E-08 6.491319239E-02
1.920000000E+01 9.999984591E-01 9.526981622E-08 6.457510284E-02
1.930000000E+01 9.999984750E-01 9.428512188E-08 6.424051682E-02
1.940000000E+01 9.999984907E-01 9.331561550E-08 6.390938013E-02
1.950000000E+01 9.999985030E-01 8.697365540E-08 6.358163972E-02
1.960000000E+01 9.999985178E-01 8.534228429E-08 6.325724360E-02
1.970000000E+01 9.999985324E-01 8.374696966E-08 6.293614084E-02
1.980000000E+01 9.999985467E-01 8.218675886E-08 6.261828154E-02
1.990000000E+01 9.999985609E-01 8.066072875E-08 6.230361681E-02
2.000000000E+01 9.999985748E-01 7.916798464E-08 6.199209873E-02
2.010000000E+01 9.999985886E-01 7.770765931E-08 6.168368033E-02
2.020000000E+01 9.999986025E-01 7.686724604E-08 6.137831557E-02
2.030000000E+01 9.999986162E-01 7.611179857E-08 6.107595934E-02
2.040000000E+01 9.999986298E-01 7.536743337E-08 6.077656738E-02
2.050000000E+01 9.999986431E-01 7.463393474E-08 6.048009632E-02
2.060000000E+01 9.999986562E-01 7.391109217E-08 6.018650362E-02
2.070000000E+01 9.999986692E-01 7.319870026E-08 5.989574756E-02
2.080000000E+01 9.999986802E-01 6.847745152E-08 5.960778724E-02
2.090000000E+01 9.999986925E-01 6.726780349E-08 5.932258252E-02
2.100000000E+01 9.999987047E-01 6.608328022E-08 5.904009403E-02
2.110000000E+01 9.999987167E-01 6.492325812E-08 5.876028316E-02
2.120000000E+01 9.999987286E-01 6.378713175E-08 5.848311201E-02
2.130000000E+01 9.999987402E-01 6.267431320E-08 5.820854341E-02
2.140000000E+01 9.999987518E-01 6.158423153E-08 5.793654087E-02
2.150000000E+01 9.999987631E-01 6.052173172E-08 5.766706859E-02
2.160000000E+01 9.999987746E-01 5.996264251E-08 5.740009142E-02
2.170000000E+01 9.999987858E-01 5.941126481E-08 5.713557487E-02
2.180000000E+01 9.999987969E-01 5.886745747E-08 5.687348507E-02
2.190000000E+01 9.999988079E-01 5.833108252E-08 5.661378879E-02
2.200000000E+01 9.999988187E-01 5.780200514E-08 5.635645339E-02
2.210000000E+01 9.999988294E-01 5.728009354E-08 5.610144681E-02
2.220000000E+01 9.999988399E-01 5.676521891E-08 5.584873759E-02
2.230000000E+01 9.999988492E-01 5.285282258E-08 5.559829482E-02
2.240000000E+01 9.999988593E-01 5.197773139E-08 5.535008815E-02
2.250000000E+01 9.999988693E-01 5.111963620E-08 5.510408776E-02
2.260000000E+01 9.999988791E-01 5.027814274E-08 5.486026436E-02
2.270000000E+01 9.999988889E-01 4.945286744E-08 5.461858919E-02
2.280000000E+01 9.999988985E-01 4.864343714E-08 5.437903397E-02
2.290000000E+01 9.999989079E-01 4.784948874E-08 5.414157094E-02
2.300000000E+01 9.999989173E-01 4.713837292E-08 5.390617281E-02
2.310000000E+01 9.999989267E-01 4.673113187E-08 5.367281275E-02
2.320000000E+01 9.999989359E-01 4.632914551E-08 5.344146442E-02
2.330000000E+01 9.999989450E-01 4.593232382E-08 5.321210191E-02
2.340000000E+01 9.999989540E-01 4.554057871E-08 5.298469977E-02
2.350000000E+01 9.999989629E-01 4.515382395E-08 5.275923296E-02
2.360000000E+01 9.999989717E-01 4.477197515E-08 5.253567689E-02
2.370000000E+01 9.999989803E-01 4.439494966E-08 5.231400737E-02
2.380000000E+01 9.999989883E-01 4.147649400E-08 5.209420061E-02
2.390000000E+01 9.999989967E-01 4.083358069E-08 5.187623325E-02
2.400000000E+01 9.999990049E-01 4.020237088E-08 5.166008227E-02
2.410000000E+01 9.999990131E-01 3.958260995E-08 5.144572509E-02
2.420000000E+01 9.999990212E-01 3.897404978E-08 5.123313945E-02
2.430000000E+01 9.999990292E-01 3.837644859E-08 5.102230348E-02
2.440000000E+01 9.999990370E-01 3.778957068E-08 5.081319568E-02
2.450000000E+01 9.999990448E-01 3.721318632E-08 5.060579488E-02
2.460000000E+01 9.999990525E-01 3.672402185E-08 5.040008027E-02
2.470000000E+01 9.999990602E-01 3.642726329E-08 5.019603136E-02
2.480000000E+01 9.999990677E-01 3.613408731E-08 4.999362801E-02
2.490000000E+01 9.999990752E-01 3.584443648E-08 4.979285038E-02
2.500000000E+01 9.999990826E-01 3.555825450E-08 4.959367898E-02
2.510000000E+01 9.999990899E-01 3.527548620E-08 4.939609460E-02
2.520000000E+01 9.999990971E-01 3.499607751E-08 4.920007836E-02
2.530000000E+01 9.999991042E-01 3.471997541E-08 4.900561164E-02
2.540000000E+01 9.999991109E-01 3.255199779E-08 4.881267616E-02
2.550000000E+01 9.999991179E-01 3.207869458E-08 4.862125391E-02
2.560000000E+01 9.999991247E-01 3.161347256E-08 4.843132713E-02
2.570000000E+01 9.999991315E-01 3.115616681E-08 4.824287839E-02
2.580000000E+01 9.999991382E-01 3.070661635E-08 4.805589049E-02
2.590000000E+01 9.999991448E-01 3.026466405E-08 4.787034651E-02
2.600000000E+01 9.999991513E-01 2.983015651E-08 4.768622979E-02
2.610000000E+01 9.999991578E-01 2.940294398E-08 4.750352393E-02
2.620000000E+01 9.999991641E-01 2.898288022E-08 4.732221277E-02
2.630000000E+01 9.999991705E-01 2.864248829E-08 4.714228040E-02
2.640000000E+01 9.999991767E-01 2.842591071E-08 4.696371116E-02
2.650000000E+01 9.999991829E-01 2.821178032E-08 4.678648961E-02
2.660000000E+01 9.999991891E-01 2.800006039E-08 4.661060055E-02
2.670000000E+01 9.999991951E-01 2.779071488E-08 4.643602901E-02
2.680000000E+01 9.999992011E-01 2.758370841E-08 4.626276025E-02
2.690000000E+01 9.999992071E-01 2.737900627E-08 4.609077972E-02
2.700000000E+01 9.999992129E-01 2.717657439E-08 4.592007313E-02
2.710000000E+01 9.999992187E-01 2.697637931E-08 4.575062637E-02
2.720000000E+01 9.999992238E-01 2.514734345E-08 4.558242554E-02
2.730000000E+01 9.999992294E-01 2.479735022E-08 4.541545694E-02
2.740000000E+01 9.999992350E-01 2.445299072E-08 4.524970710E-02
2.750000000E+01 9.999992405E-01 2.411415700E-08 4.508516271E-02
2.760000000E+01 9.999992459E-01 2.378074351E-08 4.492181067E-02
2.770000000E+01 9.999992513E-01 2.345264707E-08 4.475963807E-02
2.780000000E+01 9.999992566E-01 2.312976682E-08 4.459863218E-02
2.790000000E+01 9.999992619E-01 2.281200412E-08 4.443878045E-02
2.800000000E+01 9.999992671E-01 2.249926251E-08 4.428007052E-02
2.810000000E+01 9.999992722E-01 2.222666813E-08 4.412249020E-02
2.820000000E+01 9.999992774E-01 2.206931169E-08 4.396602747E-02
2.830000000E+01 9.999992825E-01 2.191362038E-08 4.381067048E-02
2.840000000E+01 9.999992875E-01 2.175957080E-08 4.365640756E-02
2.850000000E+01 9.999992925E-01 2.160713995E-08 4.350322718E-02
2.860000000E+01 9.999992975E-01 2.145630523E-08 4.335111799E-02
2.870000000E+01 9.999993024E-01 2.130704443E-08 4.320006880E-02
2.880000000E+01 9.999993072E-01 2.115933573E-08 4.305006856E-02
2.890000000E+01 9.999993120E-01 2.101315768E-08 4.290110639E-02
2.900000000E+01 9.999993167E-01 2.086848921E-08 4.275317154E-02
2.910000000E+01 9.999993214E-01 1.940503273E-08 4.260625342E-02
2.920000000E+01 9.999993260E-01 1.914921014E-08 4.246034160E-02
2.930000000E+01 9.999993306E-01 1.889725678E-08 4.231542575E-02
2.940000000E+01 9.999993352E-01 1.864910314E-08 4.217149573E-02
2.950000000E+01 9.999993397E-01 1.840468112E-08 4.202854151E-02
2.960000000E+01 9.999993441E-01 1.816392410E-08 4.188655320E-02
2.970000000E+01 9.999993485E-01 1.792676682E-08 4.174552103E-02
2.980000000E+01 9.999993529E-01 1.769314540E-08 4.160543539E-02
2.990000000E+01 9.999993572E-01 1.746299727E-08 4.146628678E-02
3.000000000E+01 9.999993615E-01 1.723626117E-08 4.132806582E-02
3.010000000E+01 9.999993657E-01 1.710757662E-08 4.119076328E-02
3.020000000E+01 9.999993699E-01 1.699446899E-08 4.105437002E-02
3.030000000E+01 9.999993741E-01 1.688247938E-08 4.091887705E-02
3.040000000E+01 9.999993782E-01 1.677159312E-08 4.078427548E-02
3.050000000E+01 9.999993823E-01 1.666179575E-08 4.065055654E-02
3.060000000E+01 9.999993863E-01 1.655307307E-08 4.051771159E-02
3.070000000E+01 9.999993903E-01 1.644541109E-08 4.038573207E-02
3.080000000E+01 9.999993942E-01 1.633879606E-08 4.025460956E-02
3.090000000E+01 9.999993982E-01 1.623321446E-08 4.012433575E-02
3.100000000E+01 9.999994020E-01 1.612865296E-08 3.999490241E-02
3.110000000E+01 9.999994060E-01 1.501303311E-08 3.986630143E-02
3.120000000E+01 9.999994098E-01 1.482794892E-08 3.973852483E-02
3.130000000E+01 9.999994135E-01 1.464548483E-08 3.961156468E-02
3.140000000E+01 9.999994173E-01 1.446559676E-08 3.948541320E-02
3.150000000E+01 9.999994210E-01 1.428824148E-08 3.936006269E-02
3.160000000E+01 9.999994246E-01 1.411337661E-08 3.923550552E-02
3.170000000E+01 9.999994283E-01 1.394096064E-08 3.911173421E-02
3.180000000E+01 9.999994319E-01 1.377095282E-08 3.898874134E-02
3.190000000E+01 9.999994354E-01 1.360331322E-08 3.886651958E-02
3.200000000E+01 9.999994390E-01 1.343800267E-08 3.874506171E-02
3.210000000E+01 9.999994424E-01 1.328527393E-08 3.862436058E-02
3.220000000E+01 9.999994459E-01 1.320288483E-08 3.850440915E-02
3.230000000E+01 9.999994493E-01 1.312125977E-08 3.838520045E-02
3.240000000E+01 9.999994527E-01 1.304038934E-08 3.826672761E-02
3.250000000E+01 9.999994561E-01 1.296026424E-08 3.814898383E-02
3.260000000E+01 9.999994594E-01 1.288087537E-08 3.803196241E-02
3.270000000E+01 9.999994627E-01 1.280221372E-08 3.791565672E-02
