# 08/03/2022 
# Density retrieved from www.chemicool.com/densities.html 
# Includes the real (n) and complex (k) part of the  refractive index. 
# Element, Ca  (Z = 20) 
# Nominal density, g cm-3 =  1.55 
#    E [keV]      n       k    Wavelength [nm] 
2.000000000E+00 9.999221726E-01 5.953995428E-06 6.199209873E-01
2.100000000E+00 9.999297315E-01 4.822284897E-06 5.904009403E-01
2.200000000E+00 9.999362363E-01 4.002118825E-06 5.635645339E-01
2.300000000E+00 9.999418610E-01 3.400390135E-06 5.390617281E-01
2.400000000E+00 9.999467420E-01 2.952255742E-06 5.166008227E-01
2.500000000E+00 9.999511283E-01 2.505340576E-06 4.959367898E-01
2.600000000E+00 9.999548777E-01 2.252672608E-06 4.768622979E-01
2.700000000E+00 9.999583981E-01 1.892331398E-06 4.592007313E-01
2.800000000E+00 9.999613393E-01 1.741040087E-06 4.428007052E-01
2.900000000E+00 9.999642155E-01 1.460353569E-06 4.275317154E-01
3.000000000E+00 9.999665675E-01 1.360752680E-06 4.132806582E-01
3.100000000E+00 9.999689567E-01 1.136171353E-06 3.999490241E-01
3.200000000E+00 9.999708726E-01 1.063135070E-06 3.874506171E-01
3.300000000E+00 9.999729167E-01 8.911559766E-07 3.757096893E-01
3.400000000E+00 9.999745133E-01 8.299298249E-07 3.646594043E-01
3.500000000E+00 9.999763069E-01 7.094009534E-07 3.542405642E-01
3.600000000E+00 9.999776900E-01 6.530091500E-07 3.444005485E-01
3.700000000E+00 9.999793635E-01 5.721802541E-07 3.350924256E-01
3.800000000E+00 9.999806980E-01 5.174860860E-07 3.262742038E-01
3.900000000E+00 9.999824606E-01 4.667629548E-07 3.179081986E-01
4.000000000E+00 9.999847870E-01 4.232759180E-07 3.099604936E-01
4.100000000E+00 9.999847976E-01 3.756636713E-06 3.024004816E-01
4.200000000E+00 9.999850362E-01 3.549540282E-06 2.952004701E-01
4.300000000E+00 9.999845371E-01 3.140239884E-06 2.883353429E-01
4.400000000E+00 9.999850229E-01 2.955778146E-06 2.817822670E-01
4.500000000E+00 9.999853021E-01 2.661086418E-06 2.755204388E-01
4.600000000E+00 9.999857268E-01 2.456513264E-06 2.695308640E-01
4.700000000E+00 9.999862637E-01 2.325260378E-06 2.637961648E-01
4.800000000E+00 9.999866514E-01 2.110596215E-06 2.583004114E-01
4.900000000E+00 9.999870935E-01 1.960714500E-06 2.530289744E-01
5.000000000E+00 9.999875563E-01 1.850944766E-06 2.479683949E-01
5.100000000E+00 9.999880395E-01 1.779070325E-06 2.431062695E-01
5.200000000E+00 9.999883547E-01 1.587403868E-06 2.384311490E-01
5.300000000E+00 9.999887406E-01 1.484544247E-06 2.339324480E-01
5.400000000E+00 9.999891538E-01 1.430070230E-06 2.296003657E-01
5.500000000E+00 9.999894761E-01 1.295941401E-06 2.254258136E-01
5.600000000E+00 9.999898180E-01 1.213095777E-06 2.214003526E-01
5.700000000E+00 9.999901545E-01 1.149623150E-06 2.175161359E-01
5.800000000E+00 9.999904911E-01 1.110322716E-06 2.137658577E-01
5.900000000E+00 9.999907655E-01 1.002015872E-06 2.101427076E-01
6.000000000E+00 9.999910535E-01 9.417513563E-07 2.066403291E-01
6.100000000E+00 9.999913361E-01 8.980789262E-07 2.032527827E-01
6.200000000E+00 9.999916134E-01 8.693422696E-07 1.999745120E-01
6.300000000E+00 9.999918504E-01 7.871541523E-07 1.968003134E-01
6.400000000E+00 9.999920931E-01 7.425849776E-07 1.937253085E-01
6.500000000E+00 9.999923282E-01 7.070375063E-07 1.907449192E-01
6.600000000E+00 9.999925589E-01 6.857744408E-07 1.878548446E-01
6.700000000E+00 9.999927649E-01 6.273096590E-07 1.850510410E-01
6.800000000E+00 9.999929704E-01 5.938378946E-07 1.823297021E-01
6.900000000E+00 9.999931672E-01 5.624556366E-07 1.796872427E-01
7.000000000E+00 9.999933603E-01 5.444649095E-07 1.771202821E-01
7.100000000E+00 9.999935460E-01 5.292358771E-07 1.746256302E-01
7.200000000E+00 9.999937143E-01 4.809133629E-07 1.722002742E-01
7.300000000E+00 9.999938822E-01 4.569279940E-07 1.698413664E-01
7.400000000E+00 9.999940436E-01 4.350329463E-07 1.675462128E-01
7.500000000E+00 9.999942014E-01 4.235094070E-07 1.653122633E-01
7.600000000E+00 9.999943530E-01 4.124377448E-07 1.631371019E-01
7.700000000E+00 9.999944930E-01 3.751896692E-07 1.610184383E-01
7.800000000E+00 9.999946315E-01 3.576206188E-07 1.589540993E-01
7.900000000E+00 9.999947649E-01 3.410129717E-07 1.569420221E-01
8.000000000E+00 9.999948950E-01 3.323859192E-07 1.549802468E-01
8.100000000E+00 9.999950202E-01 3.242295203E-07 1.530669104E-01
8.200000000E+00 9.999951328E-01 2.968031854E-07 1.512002408E-01
8.300000000E+00 9.999952469E-01 2.835905479E-07 1.493785512E-01
8.400000000E+00 9.999953570E-01 2.710611004E-07 1.476002351E-01
8.500000000E+00 9.999954645E-01 2.621640994E-07 1.458637617E-01
8.600000000E+00 9.999955694E-01 2.561027066E-07 1.441676715E-01
8.700000000E+00 9.999956706E-01 2.502491238E-07 1.425105718E-01
8.800000000E+00 9.999957666E-01 2.274938749E-07 1.408911335E-01
8.900000000E+00 9.999958607E-01 2.179314559E-07 1.393080870E-01
9.000000000E+00 9.999959517E-01 2.088328329E-07 1.377602194E-01
9.100000000E+00 9.999960400E-01 2.030228249E-07 1.362463708E-01
9.200000000E+00 9.999961257E-01 1.986332719E-07 1.347654320E-01
9.300000000E+00 9.999962085E-01 1.943845546E-07 1.333163414E-01
9.400000000E+00 9.999962891E-01 1.767302344E-07 1.318980824E-01
9.500000000E+00 9.999963669E-01 1.696218878E-07 1.305096815E-01
9.600000000E+00 9.999964422E-01 1.628393409E-07 1.291502057E-01
9.700000000E+00 9.999965152E-01 1.577331845E-07 1.278187603E-01
9.800000000E+00 9.999965860E-01 1.545305637E-07 1.265144872E-01
9.900000000E+00 9.999966546E-01 1.514245009E-07 1.252365631E-01
1.000000000E+01 9.999967221E-01 1.391607771E-07 1.239841975E-01
1.010000000E+01 9.999967869E-01 1.338978812E-07 1.227566311E-01
1.020000000E+01 9.999968498E-01 1.288620748E-07 1.215531348E-01
1.030000000E+01 9.999969109E-01 1.240417859E-07 1.203730072E-01
1.040000000E+01 9.999969701E-01 1.211390769E-07 1.192155745E-01
1.050000000E+01 9.999970275E-01 1.188426536E-07 1.180801881E-01
1.060000000E+01 9.999970833E-01 1.166109163E-07 1.169662240E-01
1.070000000E+01 9.999971387E-01 1.070855594E-07 1.158730817E-01
1.080000000E+01 9.999971918E-01 1.032789770E-07 1.148001828E-01
1.090000000E+01 9.999972433E-01 9.962643184E-08 1.137469701E-01
1.100000000E+01 9.999972935E-01 9.612056359E-08 1.127129068E-01
1.110000000E+01 9.999973421E-01 9.389046528E-08 1.116974752E-01
1.120000000E+01 9.999973894E-01 9.222133472E-08 1.107001763E-01
1.130000000E+01 9.999974354E-01 9.059632099E-08 1.097205287E-01
1.140000000E+01 9.999974801E-01 8.901388294E-08 1.087580679E-01
1.150000000E+01 9.999975252E-01 8.103835819E-08 1.078123456E-01
1.160000000E+01 9.999975679E-01 7.836603742E-08 1.068829288E-01
1.170000000E+01 9.999976096E-01 7.579437459E-08 1.059693995E-01
1.180000000E+01 9.999976502E-01 7.335704611E-08 1.050713538E-01
1.190000000E+01 9.999976895E-01 7.212933480E-08 1.041884012E-01
1.200000000E+01 9.999977278E-01 7.093218820E-08 1.033201645E-01
1.210000000E+01 9.999977652E-01 6.976460010E-08 1.024662789E-01
1.220000000E+01 9.999978028E-01 6.450041792E-08 1.016263914E-01
1.230000000E+01 9.999978387E-01 6.249056883E-08 1.008001605E-01
1.240000000E+01 9.999978736E-01 6.055222204E-08 9.998725601E-02
1.250000000E+01 9.999979078E-01 5.868236916E-08 9.918735797E-02
1.260000000E+01 9.999979411E-01 5.687814927E-08 9.840015671E-02
1.270000000E+01 9.999979734E-01 5.592003047E-08 9.762535233E-02
1.280000000E+01 9.999980049E-01 5.504969309E-08 9.686265426E-02
1.290000000E+01 9.999980357E-01 5.419951755E-08 9.611178098E-02
1.300000000E+01 9.999980658E-01 5.336888589E-08 9.537245958E-02
1.310000000E+01 9.999980964E-01 4.897468167E-08 9.464442554E-02
1.320000000E+01 9.999981253E-01 4.755087411E-08 9.392742232E-02
1.330000000E+01 9.999981536E-01 4.617432973E-08 9.322120110E-02
1.340000000E+01 9.999981813E-01 4.484319227E-08 9.252552049E-02
1.350000000E+01 9.999982083E-01 4.370160712E-08 9.184014627E-02
1.360000000E+01 9.999982345E-01 4.306129919E-08 9.116485107E-02
1.370000000E+01 9.999982602E-01 4.243496136E-08 9.049941420E-02
1.380000000E+01 9.999982853E-01 4.182219018E-08 8.984362135E-02
1.390000000E+01 9.999983099E-01 4.122259664E-08 8.919726436E-02
1.400000000E+01 9.999983350E-01 3.788527917E-08 8.856014104E-02
1.410000000E+01 9.999983587E-01 3.685468293E-08 8.793205493E-02
1.420000000E+01 9.999983819E-01 3.585613332E-08 8.731281511E-02
1.430000000E+01 9.999984046E-01 3.488845056E-08 8.670223598E-02
1.440000000E+01 9.999984269E-01 3.395050558E-08 8.610013712E-02
1.450000000E+01 9.999984485E-01 3.345391890E-08 8.550634307E-02
1.460000000E+01 9.999984697E-01 3.299721546E-08 8.492068319E-02
1.470000000E+01 9.999984904E-01 3.254980077E-08 8.434299147E-02
1.480000000E+01 9.999985108E-01 3.211142462E-08 8.377310639E-02
1.490000000E+01 9.999985314E-01 2.978474860E-08 8.321087078E-02
1.500000000E+01 9.999985511E-01 2.902447714E-08 8.265613164E-02
1.510000000E+01 9.999985704E-01 2.828642969E-08 8.210874004E-02
1.520000000E+01 9.999985893E-01 2.756983650E-08 8.156855096E-02
1.530000000E+01 9.999986078E-01 2.687395898E-08 8.103542318E-02
1.540000000E+01 9.999986259E-01 2.619808820E-08 8.050921913E-02
1.550000000E+01 9.999986436E-01 2.585546628E-08 7.998980481E-02
1.560000000E+01 9.999986609E-01 2.552504838E-08 7.947704965E-02
1.570000000E+01 9.999986779E-01 2.520092407E-08 7.897082641E-02
1.580000000E+01 9.999986946E-01 2.488293452E-08 7.847101105E-02
1.590000000E+01 9.999987110E-01 2.457092589E-08 7.797748268E-02
1.600000000E+01 9.999987278E-01 2.262104668E-08 7.749012341E-02
1.610000000E+01 9.999987437E-01 2.208132542E-08 7.700881830E-02
1.620000000E+01 9.999987592E-01 2.155633092E-08 7.653345522E-02
1.630000000E+01 9.999987745E-01 2.104558709E-08 7.606392482E-02
1.640000000E+01 9.999987895E-01 2.054863580E-08 7.560012040E-02
1.650000000E+01 9.999988042E-01 2.015133727E-08 7.514193785E-02
1.660000000E+01 9.999988186E-01 1.990928136E-08 7.468927558E-02
1.670000000E+01 9.999988327E-01 1.967156073E-08 7.424203441E-02
1.680000000E+01 9.999988465E-01 1.943807246E-08 7.380011753E-02
1.690000000E+01 9.999988602E-01 1.920871668E-08 7.336343045E-02
1.700000000E+01 9.999988735E-01 1.898339644E-08 7.293188086E-02
1.710000000E+01 9.999988873E-01 1.749230749E-08 7.250537863E-02
1.720000000E+01 9.999989003E-01 1.710087128E-08 7.208383573E-02
1.730000000E+01 9.999989130E-01 1.671944609E-08 7.166716616E-02
1.740000000E+01 9.999989256E-01 1.634772852E-08 7.125528590E-02
1.750000000E+01 9.999989379E-01 1.598542594E-08 7.084811283E-02
1.760000000E+01 9.999989500E-01 1.563415061E-08 7.044556674E-02
1.770000000E+01 9.999989618E-01 1.545799257E-08 7.004756919E-02
1.780000000E+01 9.999989735E-01 1.528479514E-08 6.965404352E-02
1.790000000E+01 9.999989849E-01 1.511449235E-08 6.926491478E-02
1.800000000E+01 9.999989962E-01 1.494702004E-08 6.888010970E-02
1.810000000E+01 9.999990072E-01 1.478231584E-08 6.849955661E-02
1.820000000E+01 9.999990186E-01 1.370215971E-08 6.812318542E-02
1.830000000E+01 9.999990293E-01 1.340752680E-08 6.775092757E-02
1.840000000E+01 9.999990399E-01 1.312003425E-08 6.738271601E-02
1.850000000E+01 9.999990503E-01 1.283947770E-08 6.701848511E-02
1.860000000E+01 9.999990606E-01 1.256565961E-08 6.665817068E-02
1.870000000E+01 9.999990707E-01 1.229838901E-08 6.630170987E-02
1.880000000E+01 9.999990806E-01 1.203748123E-08 6.594904120E-02
1.890000000E+01 9.999990903E-01 1.189249275E-08 6.560010448E-02
1.900000000E+01 9.999990999E-01 1.176763804E-08 6.525484077E-02
1.910000000E+01 9.999991093E-01 1.164473927E-08 6.491319239E-02
1.920000000E+01 9.999991185E-01 1.152375579E-08 6.457510284E-02
1.930000000E+01 9.999991276E-01 1.140464800E-08 6.424051682E-02
1.940000000E+01 9.999991366E-01 1.128737733E-08 6.390938013E-02
1.950000000E+01 9.999991459E-01 1.042354377E-08 6.358163972E-02
1.960000000E+01 9.999991546E-01 1.021380373E-08 6.325724360E-02
1.970000000E+01 9.999991632E-01 1.000881601E-08 6.293614084E-02
1.980000000E+01 9.999991717E-01 9.808453431E-09 6.261828154E-02
1.990000000E+01 9.999991801E-01 9.612592801E-09 6.230361681E-02
2.000000000E+01 9.999991883E-01 9.421114748E-09 6.199209873E-02
2.010000000E+01 9.999991964E-01 9.233903594E-09 6.168368033E-02
2.020000000E+01 9.999992044E-01 9.132573603E-09 6.137831557E-02
2.030000000E+01 9.999992122E-01 9.042819124E-09 6.107595934E-02
2.040000000E+01 9.999992199E-01 8.954381327E-09 6.077656738E-02
2.050000000E+01 9.999992275E-01 8.867234581E-09 6.048009632E-02
2.060000000E+01 9.999992350E-01 8.781353881E-09 6.018650362E-02
2.070000000E+01 9.999992423E-01 8.696714819E-09 5.989574756E-02
2.080000000E+01 9.999992499E-01 8.070573865E-09 5.960778724E-02
2.090000000E+01 9.999992571E-01 7.918458427E-09 5.932258252E-02
2.100000000E+01 9.999992642E-01 7.769575672E-09 5.904009403E-02
2.110000000E+01 9.999992712E-01 7.623844422E-09 5.876028316E-02
2.120000000E+01 9.999992781E-01 7.481185874E-09 5.848311201E-02
2.130000000E+01 9.999992849E-01 7.341523529E-09 5.820854341E-02
2.140000000E+01 9.999992917E-01 7.204783108E-09 5.793654087E-02
2.150000000E+01 9.999992983E-01 7.071621604E-09 5.766706859E-02
2.160000000E+01 9.999993048E-01 7.006295196E-09 5.740009142E-02
2.170000000E+01 9.999993111E-01 6.941869835E-09 5.713557487E-02
2.180000000E+01 9.999993175E-01 6.878329026E-09 5.687348507E-02
2.190000000E+01 9.999993237E-01 6.815656651E-09 5.661378879E-02
2.200000000E+01 9.999993298E-01 6.753836956E-09 5.635645339E-02
2.210000000E+01 9.999993359E-01 6.692854541E-09 5.610144681E-02
2.220000000E+01 9.999993418E-01 6.632694356E-09 5.584873759E-02
2.230000000E+01 9.999993480E-01 6.123995527E-09 5.559829482E-02
2.240000000E+01 9.999993539E-01 6.016083419E-09 5.535008815E-02
2.250000000E+01 9.999993596E-01 5.910313616E-09 5.510408776E-02
2.260000000E+01 9.999993653E-01 5.806635860E-09 5.486026436E-02
2.270000000E+01 9.999993709E-01 5.705001269E-09 5.461858919E-02
2.280000000E+01 9.999993765E-01 5.605362296E-09 5.437903397E-02
2.290000000E+01 9.999993819E-01 5.507672685E-09 5.414157094E-02
2.300000000E+01 9.999993873E-01 5.420823586E-09 5.390617281E-02
2.310000000E+01 9.999993926E-01 5.373991636E-09 5.367281275E-02
2.320000000E+01 9.999993978E-01 5.327763966E-09 5.344146442E-02
2.330000000E+01 9.999994030E-01 5.282130223E-09 5.321210191E-02
2.340000000E+01 9.999994081E-01 5.237080278E-09 5.298469977E-02
2.350000000E+01 9.999994131E-01 5.192604213E-09 5.275923296E-02
2.360000000E+01 9.999994181E-01 5.148692324E-09 5.253567689E-02
2.370000000E+01 9.999994230E-01 5.105335108E-09 5.231400737E-02
2.380000000E+01 9.999994280E-01 4.732129586E-09 5.209420061E-02
2.390000000E+01 9.999994329E-01 4.654131670E-09 5.187623325E-02
2.400000000E+01 9.999994376E-01 4.577584712E-09 5.166008227E-02
2.410000000E+01 9.999994423E-01 4.502456795E-09 5.144572509E-02
2.420000000E+01 9.999994469E-01 4.428716823E-09 5.123313945E-02
2.430000000E+01 9.999994515E-01 4.356334494E-09 5.102230348E-02
2.440000000E+01 9.999994560E-01 4.285280280E-09 5.081319568E-02
2.450000000E+01 9.999994604E-01 4.215525401E-09 5.060579488E-02
2.460000000E+01 9.999994648E-01 4.157026950E-09 5.040008027E-02
2.470000000E+01 9.999994692E-01 4.123434951E-09 5.019603136E-02
2.480000000E+01 9.999994734E-01 4.090248487E-09 4.999362801E-02
2.490000000E+01 9.999994777E-01 4.057461056E-09 4.979285038E-02
2.500000000E+01 9.999994818E-01 4.025066287E-09 4.959367898E-02
2.510000000E+01 9.999994859E-01 3.993057934E-09 4.939609460E-02
2.520000000E+01 9.999994900E-01 3.961429877E-09 4.920007836E-02
2.530000000E+01 9.999994940E-01 3.930176115E-09 4.900561164E-02
2.540000000E+01 9.999994982E-01 3.656715248E-09 4.881267616E-02
2.550000000E+01 9.999995021E-01 3.600124260E-09 4.862125391E-02
2.560000000E+01 9.999995060E-01 3.544520975E-09 4.843132713E-02
2.570000000E+01 9.999995099E-01 3.489885008E-09 4.824287839E-02
2.580000000E+01 9.999995137E-01 3.436196465E-09 4.805589049E-02
2.590000000E+01 9.999995175E-01 3.383435932E-09 4.787034651E-02
2.600000000E+01 9.999995212E-01 3.331584459E-09 4.768622979E-02
2.610000000E+01 9.999995249E-01 3.280623545E-09 4.750352393E-02
2.620000000E+01 9.999995285E-01 3.230535133E-09 4.732221277E-02
2.630000000E+01 9.999995321E-01 3.190602775E-09 4.714228040E-02
2.640000000E+01 9.999995357E-01 3.166477321E-09 4.696371116E-02
2.650000000E+01 9.999995391E-01 3.142624469E-09 4.678648961E-02
2.660000000E+01 9.999995426E-01 3.119040129E-09 4.661060055E-02
2.670000000E+01 9.999995460E-01 3.095720284E-09 4.643602901E-02
2.680000000E+01 9.999995494E-01 3.072660996E-09 4.626276025E-02
2.690000000E+01 9.999995528E-01 3.049858395E-09 4.609077972E-02
2.700000000E+01 9.999995561E-01 3.027308688E-09 4.592007313E-02
2.710000000E+01 9.999995593E-01 3.005008147E-09 4.575062637E-02
2.720000000E+01 9.999995627E-01 2.779244898E-09 4.558242554E-02
2.730000000E+01 9.999995659E-01 2.738176346E-09 4.541545694E-02
2.740000000E+01 9.999995691E-01 2.697782524E-09 4.524970710E-02
2.750000000E+01 9.999995723E-01 2.658050367E-09 4.508516271E-02
2.760000000E+01 9.999995754E-01 2.618967106E-09 4.492181067E-02
2.770000000E+01 9.999995784E-01 2.580520260E-09 4.475963807E-02
2.780000000E+01 9.999995815E-01 2.542697626E-09 4.459863218E-02
2.790000000E+01 9.999995845E-01 2.505487276E-09 4.443878045E-02
2.800000000E+01 9.999995875E-01 2.468877547E-09 4.428007052E-02
2.810000000E+01 9.999995904E-01 2.437255869E-09 4.412249020E-02
2.820000000E+01 9.999995933E-01 2.420001015E-09 4.396602747E-02
2.830000000E+01 9.999995962E-01 2.402928751E-09 4.381067048E-02
2.840000000E+01 9.999995990E-01 2.386036510E-09 4.365640756E-02
2.850000000E+01 9.999996018E-01 2.369321769E-09 4.350322718E-02
2.860000000E+01 9.999996046E-01 2.352782052E-09 4.335111799E-02
2.870000000E+01 9.999996074E-01 2.336414922E-09 4.320006880E-02
2.880000000E+01 9.999996101E-01 2.320217987E-09 4.305006856E-02
2.890000000E+01 9.999996128E-01 2.304188895E-09 4.290110639E-02
2.900000000E+01 9.999996154E-01 2.288325335E-09 4.275317154E-02
2.910000000E+01 9.999996182E-01 2.111886788E-09 4.260625342E-02
2.920000000E+01 9.999996208E-01 2.082454915E-09 4.246034160E-02
2.930000000E+01 9.999996234E-01 2.053476593E-09 4.231542575E-02
2.940000000E+01 9.999996260E-01 2.024943592E-09 4.217149573E-02
2.950000000E+01 9.999996285E-01 1.996847860E-09 4.202854151E-02
2.960000000E+01 9.999996311E-01 1.969181513E-09 4.188655320E-02
2.970000000E+01 9.999996335E-01 1.941936833E-09 4.174552103E-02
2.980000000E+01 9.999996360E-01 1.915106266E-09 4.160543539E-02
2.990000000E+01 9.999996385E-01 1.888682411E-09 4.146628678E-02
3.000000000E+01 9.999996409E-01 1.862658026E-09 4.132806582E-02
3.010000000E+01 9.999996433E-01 1.848555294E-09 4.119076328E-02
3.020000000E+01 9.999996456E-01 1.836333474E-09 4.105437002E-02
3.030000000E+01 9.999996480E-01 1.824232462E-09 4.091887705E-02
3.040000000E+01 9.999996503E-01 1.812250672E-09 4.078427548E-02
3.050000000E+01 9.999996526E-01 1.800386543E-09 4.065055654E-02
3.060000000E+01 9.999996548E-01 1.788638538E-09 4.051771159E-02
3.070000000E+01 9.999996571E-01 1.777005148E-09 4.038573207E-02
3.080000000E+01 9.999996593E-01 1.765484885E-09 4.025460956E-02
3.090000000E+01 9.999996615E-01 1.754076289E-09 4.012433575E-02
3.100000000E+01 9.999996637E-01 1.742777920E-09 3.999490241E-02
3.110000000E+01 9.999996659E-01 1.610124815E-09 3.986630143E-02
3.120000000E+01 9.999996681E-01 1.589138539E-09 3.973852483E-02
3.130000000E+01 9.999996702E-01 1.568454977E-09 3.961156468E-02
3.140000000E+01 9.999996723E-01 1.548068987E-09 3.948541320E-02
3.150000000E+01 9.999996744E-01 1.527975529E-09 3.936006269E-02
3.160000000E+01 9.999996765E-01 1.508169662E-09 3.923550552E-02
3.170000000E+01 9.999996785E-01 1.488646544E-09 3.911173421E-02
3.180000000E+01 9.999996805E-01 1.469401426E-09 3.898874134E-02
3.190000000E+01 9.999996826E-01 1.450429654E-09 3.886651958E-02
3.200000000E+01 9.999996845E-01 1.431726664E-09 3.874506171E-02
3.210000000E+01 9.999996865E-01 1.414523076E-09 3.862436058E-02
3.220000000E+01 9.999996885E-01 1.405750861E-09 3.850440915E-02
3.230000000E+01 9.999996904E-01 1.397059996E-09 3.838520045E-02
3.240000000E+01 9.999996923E-01 1.388449477E-09 3.826672761E-02
3.250000000E+01 9.999996942E-01 1.379918318E-09 3.814898383E-02
3.260000000E+01 9.999996961E-01 1.371465545E-09 3.803196241E-02
3.270000000E+01 9.999996979E-01 1.363090203E-09 3.791565672E-02
