# 08/03/2022 
# Density retrieved from www.chemicool.com/densities.html 
# Includes the real (n) and complex (k) part of the  refractive index. 
# Element, Cr  (Z = 24) 
# Nominal density, g cm-3 =  7.19 
#    E [keV]      n       k    Wavelength [nm] 
2.000000000E+00 9.996573257E-01 4.457526894E-05 6.199209873E-01
2.100000000E+00 9.996897637E-01 3.641362079E-05 5.904009403E-01
2.200000000E+00 9.997178181E-01 3.042489670E-05 5.635645339E-01
2.300000000E+00 9.997422050E-01 2.594728962E-05 5.390617281E-01
2.400000000E+00 9.997635029E-01 2.258361963E-05 5.166008227E-01
2.500000000E+00 9.997824877E-01 1.917090085E-05 4.959367898E-01
2.600000000E+00 9.997990287E-01 1.723941042E-05 4.768622979E-01
2.700000000E+00 9.998141403E-01 1.449098195E-05 4.592007313E-01
2.800000000E+00 9.998272261E-01 1.333339187E-05 4.428007052E-01
2.900000000E+00 9.998394201E-01 1.116417156E-05 4.275317154E-01
3.000000000E+00 9.998499585E-01 1.040221973E-05 4.132806582E-01
3.100000000E+00 9.998598680E-01 8.672728296E-06 3.999490241E-01
3.200000000E+00 9.998684982E-01 8.114898144E-06 3.874506171E-01
3.300000000E+00 9.998767709E-01 6.802397957E-06 3.757096893E-01
3.400000000E+00 9.998839505E-01 6.335065913E-06 3.646594043E-01
3.500000000E+00 9.998908793E-01 5.415691796E-06 3.542405642E-01
3.600000000E+00 9.998969505E-01 4.985358231E-06 3.444005485E-01
3.700000000E+00 9.999027580E-01 4.368583012E-06 3.350924256E-01
3.800000000E+00 9.999079783E-01 3.951174957E-06 3.262742038E-01
3.900000000E+00 9.999126369E-01 3.751148348E-06 3.179081986E-01
4.000000000E+00 9.999173295E-01 3.233823517E-06 3.099604936E-01
4.100000000E+00 9.999214017E-01 3.000360625E-06 3.024004816E-01
4.200000000E+00 9.999253639E-01 2.682990685E-06 2.952004701E-01
4.300000000E+00 9.999289580E-01 2.450778278E-06 2.883353429E-01
4.400000000E+00 9.999322035E-01 2.305273572E-06 2.817822670E-01
4.500000000E+00 9.999354790E-01 2.060601365E-06 2.755204388E-01
4.600000000E+00 9.999384156E-01 1.893573702E-06 2.695308640E-01
4.700000000E+00 9.999410583E-01 1.789640354E-06 2.637961648E-01
4.800000000E+00 9.999438088E-01 1.611330726E-06 2.583004114E-01
4.900000000E+00 9.999462530E-01 1.489381092E-06 2.530289744E-01
5.000000000E+00 9.999484680E-01 1.402135272E-06 2.479683949E-01
5.100000000E+00 9.999504690E-01 1.347688650E-06 2.431062695E-01
5.200000000E+00 9.999529067E-01 1.189596104E-06 2.384311490E-01
5.300000000E+00 9.999548606E-01 1.107628009E-06 2.339324480E-01
5.400000000E+00 9.999565169E-01 1.066984594E-06 2.296003657E-01
5.500000000E+00 9.999588335E-01 9.626548589E-07 2.254258136E-01
5.600000000E+00 9.999606263E-01 8.990889273E-07 2.214003526E-01
5.700000000E+00 9.999621888E-01 8.508442359E-07 2.175161359E-01
5.800000000E+00 9.999646228E-01 7.877331824E-07 2.137658577E-01
5.900000000E+00 9.999663525E-01 7.451379192E-07 2.101427076E-01
6.000000000E+00 9.999726177E-01 6.966335995E-07 2.066403291E-01
6.100000000E+00 9.999683714E-01 5.891019473E-06 2.032527827E-01
6.200000000E+00 9.999692289E-01 5.688967552E-06 1.999745120E-01
6.300000000E+00 9.999688782E-01 5.217910666E-06 1.968003134E-01
6.400000000E+00 9.999692089E-01 4.915839096E-06 1.937253085E-01
6.500000000E+00 9.999697440E-01 4.676169906E-06 1.907449192E-01
6.600000000E+00 9.999706539E-01 4.535541288E-06 1.878548446E-01
6.700000000E+00 9.999710049E-01 4.162652467E-06 1.850510410E-01
6.800000000E+00 9.999716454E-01 3.946352554E-06 1.823297021E-01
6.900000000E+00 9.999722671E-01 3.743420146E-06 1.796872427E-01
7.000000000E+00 9.999730261E-01 3.624503318E-06 1.771202821E-01
7.100000000E+00 9.999737806E-01 3.523123638E-06 1.746256302E-01
7.200000000E+00 9.999742045E-01 3.220085403E-06 1.722002742E-01
7.300000000E+00 9.999748097E-01 3.065933699E-06 1.698413664E-01
7.400000000E+00 9.999754004E-01 2.924853324E-06 1.675462128E-01
7.500000000E+00 9.999760520E-01 2.847377209E-06 1.653122633E-01
7.600000000E+00 9.999766781E-01 2.772939197E-06 1.631371019E-01
7.700000000E+00 9.999770994E-01 2.535444050E-06 1.610184383E-01
7.800000000E+00 9.999776285E-01 2.420887121E-06 1.589540993E-01
7.900000000E+00 9.999781396E-01 2.312514367E-06 1.569420221E-01
8.000000000E+00 9.999786816E-01 2.254096013E-06 1.549802468E-01
8.100000000E+00 9.999792048E-01 2.198782881E-06 1.530669104E-01
8.200000000E+00 9.999796079E-01 2.020010177E-06 1.512002408E-01
8.300000000E+00 9.999800648E-01 1.932487423E-06 1.493785512E-01
8.400000000E+00 9.999805067E-01 1.849444919E-06 1.476002351E-01
8.500000000E+00 9.999809494E-01 1.789790212E-06 1.458637617E-01
8.600000000E+00 9.999813899E-01 1.748409178E-06 1.441676715E-01
8.700000000E+00 9.999818153E-01 1.708446860E-06 1.425105718E-01
8.800000000E+00 9.999821560E-01 1.560508660E-06 1.408911335E-01
8.900000000E+00 9.999825363E-01 1.497001815E-06 1.393080870E-01
9.000000000E+00 9.999829046E-01 1.436538802E-06 1.377602194E-01
9.100000000E+00 9.999832732E-01 1.397176852E-06 1.362463708E-01
9.200000000E+00 9.999836348E-01 1.366968515E-06 1.347654320E-01
9.300000000E+00 9.999839849E-01 1.337729392E-06 1.333163414E-01
9.400000000E+00 9.999842843E-01 1.222973982E-06 1.318980824E-01
9.500000000E+00 9.999846035E-01 1.175609996E-06 1.305096815E-01
9.600000000E+00 9.999849131E-01 1.130387617E-06 1.291502057E-01
9.700000000E+00 9.999852174E-01 1.095926695E-06 1.278187603E-01
9.800000000E+00 9.999855176E-01 1.073674955E-06 1.265144872E-01
9.900000000E+00 9.999858086E-01 1.052094100E-06 1.252365631E-01
1.000000000E+01 9.999860705E-01 9.715049810E-07 1.239841975E-01
1.010000000E+01 9.999863393E-01 9.361062278E-07 1.227566311E-01
1.020000000E+01 9.999866005E-01 9.022146310E-07 1.215531348E-01
1.030000000E+01 9.999868542E-01 8.697539145E-07 1.203730072E-01
1.040000000E+01 9.999871046E-01 8.496985134E-07 1.192155745E-01
1.050000000E+01 9.999873491E-01 8.335908500E-07 1.180801881E-01
1.060000000E+01 9.999875867E-01 8.179369100E-07 1.169662240E-01
1.070000000E+01 9.999878053E-01 7.548502319E-07 1.158730817E-01
1.080000000E+01 9.999880270E-01 7.290096963E-07 1.148001828E-01
1.090000000E+01 9.999882427E-01 7.042008576E-07 1.137469701E-01
1.100000000E+01 9.999884526E-01 6.803747576E-07 1.127129068E-01
1.110000000E+01 9.999886589E-01 6.648781207E-07 1.116974752E-01
1.120000000E+01 9.999888605E-01 6.530583008E-07 1.107001763E-01
1.130000000E+01 9.999890568E-01 6.415508909E-07 1.097205287E-01
1.140000000E+01 9.999892480E-01 6.303449773E-07 1.087580679E-01
1.150000000E+01 9.999894262E-01 5.770893903E-07 1.078123456E-01
1.160000000E+01 9.999896061E-01 5.587518727E-07 1.068829288E-01
1.170000000E+01 9.999897815E-01 5.410959451E-07 1.059693995E-01
1.180000000E+01 9.999899525E-01 5.243425696E-07 1.050713538E-01
1.190000000E+01 9.999901207E-01 5.155671167E-07 1.041884012E-01
1.200000000E+01 9.999902846E-01 5.070101347E-07 1.033201645E-01
1.210000000E+01 9.999904446E-01 4.986644314E-07 1.024662789E-01
1.220000000E+01 9.999905895E-01 4.616648331E-07 1.016263914E-01
1.230000000E+01 9.999907393E-01 4.474355477E-07 1.008001605E-01
1.240000000E+01 9.999908855E-01 4.337105412E-07 9.998725601E-02
1.250000000E+01 9.999910284E-01 4.204686379E-07 9.918735797E-02
1.260000000E+01 9.999911678E-01 4.076896993E-07 9.840015671E-02
1.270000000E+01 9.999913062E-01 4.008334696E-07 9.762535233E-02
1.280000000E+01 9.999914415E-01 3.945949116E-07 9.686265426E-02
1.290000000E+01 9.999915737E-01 3.885008732E-07 9.611178098E-02
1.300000000E+01 9.999917028E-01 3.825469249E-07 9.537245958E-02
1.310000000E+01 9.999918286E-01 3.511520190E-07 9.464442554E-02
1.320000000E+01 9.999919519E-01 3.409642651E-07 9.392742232E-02
1.330000000E+01 9.999920724E-01 3.311144490E-07 9.322120110E-02
1.340000000E+01 9.999921902E-01 3.215893033E-07 9.252552049E-02
1.350000000E+01 9.999923054E-01 3.134179140E-07 9.184014627E-02
1.360000000E+01 9.999924181E-01 3.088257722E-07 9.116485107E-02
1.370000000E+01 9.999925284E-01 3.043338208E-07 9.049941420E-02
1.380000000E+01 9.999926363E-01 2.999391663E-07 8.984362135E-02
1.390000000E+01 9.999927419E-01 2.956390188E-07 8.919726436E-02
1.400000000E+01 9.999928464E-01 2.717337095E-07 8.856014104E-02
1.410000000E+01 9.999929477E-01 2.643473475E-07 8.793205493E-02
1.420000000E+01 9.999930469E-01 2.571906049E-07 8.731281511E-02
1.430000000E+01 9.999931440E-01 2.502550297E-07 8.670223598E-02
1.440000000E+01 9.999932391E-01 2.435325328E-07 8.610013712E-02
1.450000000E+01 9.999933320E-01 2.399707942E-07 8.550634307E-02
1.460000000E+01 9.999934230E-01 2.366947808E-07 8.492068319E-02
1.470000000E+01 9.999935122E-01 2.334853972E-07 8.434299147E-02
1.480000000E+01 9.999935996E-01 2.303408486E-07 8.377310639E-02
1.490000000E+01 9.999936869E-01 2.136754679E-07 8.321087078E-02
1.500000000E+01 9.999937711E-01 2.082262487E-07 8.265613164E-02
1.510000000E+01 9.999938537E-01 2.029362685E-07 8.210874004E-02
1.520000000E+01 9.999939346E-01 1.978000128E-07 8.156855096E-02
1.530000000E+01 9.999940139E-01 1.928121904E-07 8.103542318E-02
1.540000000E+01 9.999940917E-01 1.879677223E-07 8.050921913E-02
1.550000000E+01 9.999941677E-01 1.855095387E-07 7.998980481E-02
1.560000000E+01 9.999942422E-01 1.831388342E-07 7.947704965E-02
1.570000000E+01 9.999943153E-01 1.808132853E-07 7.897082641E-02
1.580000000E+01 9.999943871E-01 1.785317525E-07 7.847101105E-02
1.590000000E+01 9.999944575E-01 1.762931319E-07 7.797748268E-02
1.600000000E+01 9.999945287E-01 1.623248384E-07 7.749012341E-02
1.610000000E+01 9.999945968E-01 1.584555874E-07 7.700881830E-02
1.620000000E+01 9.999946636E-01 1.546918770E-07 7.653345522E-02
1.630000000E+01 9.999947292E-01 1.510302958E-07 7.606392482E-02
1.640000000E+01 9.999947936E-01 1.474675613E-07 7.560012040E-02
1.650000000E+01 9.999948567E-01 1.446185670E-07 7.514193785E-02
1.660000000E+01 9.999949185E-01 1.428814228E-07 7.468927558E-02
1.670000000E+01 9.999949792E-01 1.411753912E-07 7.424203441E-02
1.680000000E+01 9.999950388E-01 1.394997338E-07 7.380011753E-02
1.690000000E+01 9.999950973E-01 1.378537336E-07 7.336343045E-02
1.700000000E+01 9.999951548E-01 1.362366950E-07 7.293188086E-02
1.710000000E+01 9.999952135E-01 1.255927917E-07 7.250537863E-02
1.720000000E+01 9.999952693E-01 1.227914195E-07 7.208383573E-02
1.730000000E+01 9.999953241E-01 1.200616115E-07 7.166716616E-02
1.740000000E+01 9.999953780E-01 1.174012004E-07 7.125528590E-02
1.750000000E+01 9.999954310E-01 1.148080953E-07 7.084811283E-02
1.760000000E+01 9.999954830E-01 1.122937907E-07 7.044556674E-02
1.770000000E+01 9.999955339E-01 1.110285186E-07 7.004756919E-02
1.780000000E+01 9.999955840E-01 1.097845114E-07 6.965404352E-02
1.790000000E+01 9.999956332E-01 1.085612952E-07 6.926491478E-02
1.800000000E+01 9.999956816E-01 1.073584093E-07 6.888010970E-02
1.810000000E+01 9.999957292E-01 1.061754055E-07 6.849955661E-02
1.820000000E+01 9.999957778E-01 9.875692211E-08 6.812318542E-02
1.830000000E+01 9.999958241E-01 9.669076633E-08 6.775092757E-02
1.840000000E+01 9.999958696E-01 9.467421298E-08 6.738271601E-02
1.850000000E+01 9.999959144E-01 9.270584921E-08 6.701848511E-02
1.860000000E+01 9.999959585E-01 9.078430916E-08 6.665817068E-02
1.870000000E+01 9.999960019E-01 8.890827224E-08 6.630170987E-02
1.880000000E+01 9.999960445E-01 8.707646134E-08 6.594904120E-02
1.890000000E+01 9.999960863E-01 8.603520730E-08 6.560010448E-02
1.900000000E+01 9.999961274E-01 8.513195678E-08 6.525484077E-02
1.910000000E+01 9.999961678E-01 8.424285628E-08 6.491319239E-02
1.920000000E+01 9.999962077E-01 8.336761176E-08 6.457510284E-02
1.930000000E+01 9.999962469E-01 8.250593680E-08 6.424051682E-02
1.940000000E+01 9.999962855E-01 8.165755234E-08 6.390938013E-02
1.950000000E+01 9.999963252E-01 7.568867704E-08 6.358163972E-02
1.960000000E+01 9.999963628E-01 7.420731946E-08 6.325724360E-02
1.970000000E+01 9.999963999E-01 7.275920841E-08 6.293614084E-02
1.980000000E+01 9.999964364E-01 7.134345852E-08 6.261828154E-02
1.990000000E+01 9.999964723E-01 6.995921196E-08 6.230361681E-02
2.000000000E+01 9.999965077E-01 6.860563750E-08 6.199209873E-02
2.010000000E+01 9.999965426E-01 6.728192952E-08 6.168368033E-02
2.020000000E+01 9.999965768E-01 6.654792208E-08 6.137831557E-02
2.030000000E+01 9.999966104E-01 6.589389242E-08 6.107595934E-02
2.040000000E+01 9.999966436E-01 6.524945724E-08 6.077656738E-02
2.050000000E+01 9.999966762E-01 6.461442981E-08 6.048009632E-02
2.060000000E+01 9.999967084E-01 6.398862788E-08 6.018650362E-02
2.070000000E+01 9.999967401E-01 6.337187362E-08 5.989574756E-02
2.080000000E+01 9.999967728E-01 5.901561849E-08 5.960778724E-02
2.090000000E+01 9.999968038E-01 5.793374578E-08 5.932258252E-02
2.100000000E+01 9.999968344E-01 5.687464565E-08 5.904009403E-02
2.110000000E+01 9.999968645E-01 5.583774901E-08 5.876028316E-02
2.120000000E+01 9.999968942E-01 5.482250337E-08 5.848311201E-02
2.130000000E+01 9.999969235E-01 5.382837233E-08 5.820854341E-02
2.140000000E+01 9.999969524E-01 5.285483503E-08 5.793654087E-02
2.150000000E+01 9.999969808E-01 5.190642143E-08 5.766706859E-02
2.160000000E+01 9.999970087E-01 5.142691896E-08 5.740009142E-02
2.170000000E+01 9.999970362E-01 5.095403026E-08 5.713557487E-02
2.180000000E+01 9.999970633E-01 5.048763426E-08 5.687348507E-02
2.190000000E+01 9.999970901E-01 5.002761266E-08 5.661378879E-02
2.200000000E+01 9.999971165E-01 4.957384981E-08 5.635645339E-02
2.210000000E+01 9.999971425E-01 4.912623269E-08 5.610144681E-02
2.220000000E+01 9.999971682E-01 4.868465082E-08 5.584873759E-02
2.230000000E+01 9.999971949E-01 4.512302693E-08 5.559829482E-02
2.240000000E+01 9.999972200E-01 4.434986263E-08 5.535008815E-02
2.250000000E+01 9.999972448E-01 4.359190040E-08 5.510408776E-02
2.260000000E+01 9.999972693E-01 4.284878535E-08 5.486026436E-02
2.270000000E+01 9.999972934E-01 4.212017224E-08 5.461858919E-02
2.280000000E+01 9.999973173E-01 4.140572528E-08 5.437903397E-02
2.290000000E+01 9.999973408E-01 4.070511771E-08 5.414157094E-02
2.300000000E+01 9.999973640E-01 4.008019786E-08 5.390617281E-02
2.310000000E+01 9.999973868E-01 3.973393427E-08 5.367281275E-02
2.320000000E+01 9.999974092E-01 3.939213858E-08 5.344146442E-02
2.330000000E+01 9.999974314E-01 3.905473423E-08 5.321210191E-02
2.340000000E+01 9.999974533E-01 3.872164633E-08 5.298469977E-02
2.350000000E+01 9.999974750E-01 3.839280157E-08 5.275923296E-02
2.360000000E+01 9.999974963E-01 3.806812817E-08 5.253567689E-02
2.370000000E+01 9.999975174E-01 3.774755589E-08 5.231400737E-02
2.380000000E+01 9.999975393E-01 3.511623810E-08 5.209420061E-02
2.390000000E+01 9.999975599E-01 3.455338818E-08 5.187623325E-02
2.400000000E+01 9.999975804E-01 3.400090825E-08 5.166008227E-02
2.410000000E+01 9.999976005E-01 3.345857133E-08 5.144572509E-02
2.420000000E+01 9.999976204E-01 3.292615622E-08 5.123313945E-02
2.430000000E+01 9.999976401E-01 3.240344738E-08 5.102230348E-02
2.440000000E+01 9.999976595E-01 3.189023476E-08 5.081319568E-02
2.450000000E+01 9.999976787E-01 3.138631361E-08 5.060579488E-02
2.460000000E+01 9.999976976E-01 3.096144145E-08 5.040008027E-02
2.470000000E+01 9.999977162E-01 3.071124901E-08 5.019603136E-02
2.480000000E+01 9.999977346E-01 3.046407698E-08 4.999362801E-02
2.490000000E+01 9.999977527E-01 3.021987695E-08 4.979285038E-02
2.500000000E+01 9.999977707E-01 2.997860145E-08 4.959367898E-02
2.510000000E+01 9.999977884E-01 2.974020398E-08 4.939609460E-02
2.520000000E+01 9.999978059E-01 2.950463893E-08 4.920007836E-02
2.530000000E+01 9.999978232E-01 2.927186163E-08 4.900561164E-02
2.540000000E+01 9.999978412E-01 2.731837428E-08 4.881267616E-02
2.550000000E+01 9.999978582E-01 2.690583157E-08 4.862125391E-02
2.560000000E+01 9.999978749E-01 2.650042880E-08 4.843132713E-02
2.570000000E+01 9.999978915E-01 2.610201925E-08 4.824287839E-02
2.580000000E+01 9.999979079E-01 2.571045972E-08 4.805589049E-02
2.590000000E+01 9.999979242E-01 2.532561043E-08 4.787034651E-02
2.600000000E+01 9.999979402E-01 2.494733494E-08 4.768622979E-02
2.610000000E+01 9.999979560E-01 2.457550007E-08 4.750352393E-02
2.620000000E+01 9.999979717E-01 2.420997578E-08 4.732221277E-02
2.630000000E+01 9.999979871E-01 2.391671830E-08 4.714228040E-02
2.640000000E+01 9.999980023E-01 2.373587420E-08 4.696371116E-02
2.650000000E+01 9.999980174E-01 2.355707352E-08 4.678648961E-02
2.660000000E+01 9.999980323E-01 2.338028561E-08 4.661060055E-02
2.670000000E+01 9.999980470E-01 2.320548034E-08 4.643602901E-02
2.680000000E+01 9.999980615E-01 2.303262821E-08 4.626276025E-02
2.690000000E+01 9.999980759E-01 2.286170020E-08 4.609077972E-02
2.700000000E+01 9.999980901E-01 2.269266788E-08 4.592007313E-02
2.710000000E+01 9.999981042E-01 2.252550331E-08 4.575062637E-02
2.720000000E+01 9.999981189E-01 2.086654633E-08 4.558242554E-02
2.730000000E+01 9.999981327E-01 2.056185047E-08 4.541545694E-02
2.740000000E+01 9.999981464E-01 2.026214091E-08 4.524970710E-02
2.750000000E+01 9.999981599E-01 1.996732130E-08 4.508516271E-02
2.760000000E+01 9.999981733E-01 1.967729745E-08 4.492181067E-02
2.770000000E+01 9.999981865E-01 1.939197731E-08 4.475963807E-02
2.780000000E+01 9.999981996E-01 1.911127086E-08 4.459863218E-02
2.790000000E+01 9.999982126E-01 1.883509011E-08 4.443878045E-02
2.800000000E+01 9.999982254E-01 1.856334904E-08 4.428007052E-02
2.810000000E+01 9.999982380E-01 1.832821673E-08 4.412249020E-02
2.820000000E+01 9.999982505E-01 1.819845985E-08 4.396602747E-02
2.830000000E+01 9.999982629E-01 1.807007606E-08 4.381067048E-02
2.840000000E+01 9.999982751E-01 1.794304604E-08 4.365640756E-02
2.850000000E+01 9.999982872E-01 1.781735083E-08 4.350322718E-02
2.860000000E+01 9.999982991E-01 1.769297180E-08 4.335111799E-02
2.870000000E+01 9.999983109E-01 1.756989063E-08 4.320006880E-02
2.880000000E+01 9.999983227E-01 1.744808933E-08 4.305006856E-02
2.890000000E+01 9.999983342E-01 1.732755021E-08 4.290110639E-02
2.900000000E+01 9.999983457E-01 1.720825590E-08 4.275317154E-02
2.910000000E+01 9.999983577E-01 1.591113315E-08 4.260625342E-02
2.920000000E+01 9.999983690E-01 1.569237172E-08 4.246034160E-02
2.930000000E+01 9.999983802E-01 1.547696653E-08 4.231542575E-02
2.940000000E+01 9.999983913E-01 1.526485684E-08 4.217149573E-02
2.950000000E+01 9.999984022E-01 1.505598318E-08 4.202854151E-02
2.960000000E+01 9.999984130E-01 1.485028735E-08 4.188655320E-02
2.970000000E+01 9.999984238E-01 1.464771235E-08 4.174552103E-02
2.980000000E+01 9.999984344E-01 1.444820238E-08 4.160543539E-02
2.990000000E+01 9.999984449E-01 1.425170282E-08 4.146628678E-02
3.000000000E+01 9.999984553E-01 1.405816015E-08 4.132806582E-02
3.010000000E+01 9.999984656E-01 1.395209220E-08 4.119076328E-02
3.020000000E+01 9.999984757E-01 1.385984722E-08 4.105437002E-02
3.030000000E+01 9.999984857E-01 1.376851404E-08 4.091887705E-02
3.040000000E+01 9.999984957E-01 1.367808069E-08 4.078427548E-02
3.050000000E+01 9.999985055E-01 1.358853540E-08 4.065055654E-02
3.060000000E+01 9.999985153E-01 1.349986656E-08 4.051771159E-02
3.070000000E+01 9.999985249E-01 1.341206279E-08 4.038573207E-02
3.080000000E+01 9.999985345E-01 1.332511285E-08 4.025460956E-02
3.090000000E+01 9.999985440E-01 1.323900572E-08 4.012433575E-02
3.100000000E+01 9.999985534E-01 1.315373055E-08 3.999490241E-02
3.110000000E+01 9.999985632E-01 1.217510671E-08 3.986630143E-02
3.120000000E+01 9.999985725E-01 1.201855293E-08 3.973852483E-02
3.130000000E+01 9.999985816E-01 1.186424734E-08 3.961156468E-02
3.140000000E+01 9.999985907E-01 1.171215183E-08 3.948541320E-02
3.150000000E+01 9.999985997E-01 1.156222905E-08 3.936006269E-02
3.160000000E+01 9.999986086E-01 1.141444239E-08 3.923550552E-02
3.170000000E+01 9.999986174E-01 1.126875596E-08 3.911173421E-02
3.180000000E+01 9.999986261E-01 1.112513457E-08 3.898874134E-02
3.190000000E+01 9.999986347E-01 1.098354373E-08 3.886651958E-02
3.200000000E+01 9.999986433E-01 1.084394959E-08 3.874506171E-02
3.210000000E+01 9.999986518E-01 1.071541133E-08 3.862436058E-02
3.220000000E+01 9.999986601E-01 1.064895933E-08 3.850440915E-02
3.230000000E+01 9.999986684E-01 1.058312357E-08 3.838520045E-02
3.240000000E+01 9.999986766E-01 1.051789646E-08 3.826672761E-02
3.250000000E+01 9.999986848E-01 1.045327052E-08 3.814898383E-02
3.260000000E+01 9.999986928E-01 1.038923839E-08 3.803196241E-02
3.270000000E+01 9.999987008E-01 1.032579281E-08 3.791565672E-02
