# 08/03/2022 
# Density retrieved from www.chemicool.com/densities.html 
# Includes the real (n) and complex (k) part of the  refractive index. 
# Element, Cu  (Z = 29) 
# Nominal density, g cm-3 =  8.96 
#    E [keV]      n       k    Wavelength [nm] 
2.000000000E+00 9.995801428E-01 9.541198564E-05 6.199209873E-01
2.100000000E+00 9.996171395E-01 7.802724797E-05 5.904009403E-01
2.200000000E+00 9.996496861E-01 6.517979764E-05 5.635645339E-01
2.300000000E+00 9.996788928E-01 5.557292165E-05 5.390617281E-01
2.400000000E+00 9.997047961E-01 4.835778268E-05 5.166008227E-01
2.500000000E+00 9.997277782E-01 4.115087140E-05 4.959367898E-01
2.600000000E+00 9.997482678E-01 3.703716168E-05 4.768622979E-01
2.700000000E+00 9.997665788E-01 3.121018069E-05 4.592007313E-01
2.800000000E+00 9.997829549E-01 2.872509151E-05 4.428007052E-01
2.900000000E+00 9.997977347E-01 2.417359451E-05 4.275317154E-01
3.000000000E+00 9.998109960E-01 2.252697623E-05 4.132806582E-01
3.100000000E+00 9.998230633E-01 1.894454074E-05 3.999490241E-01
3.200000000E+00 9.998339506E-01 1.773017913E-05 3.874506171E-01
3.300000000E+00 9.998441247E-01 1.501204025E-05 3.757096893E-01
3.400000000E+00 9.998531822E-01 1.399549817E-05 3.646594043E-01
3.500000000E+00 9.998617040E-01 1.206645534E-05 3.542405642E-01
3.600000000E+00 9.998693403E-01 1.113441026E-05 3.444005485E-01
3.700000000E+00 9.998765052E-01 9.813579132E-06 3.350924256E-01
3.800000000E+00 9.998830267E-01 8.909159836E-06 3.262742038E-01
3.900000000E+00 9.998889485E-01 8.458137280E-06 3.179081986E-01
4.000000000E+00 9.998946757E-01 7.312057455E-06 3.099604936E-01
4.100000000E+00 9.998998079E-01 6.789426639E-06 3.024004816E-01
4.200000000E+00 9.999046860E-01 6.082858627E-06 2.952004701E-01
4.300000000E+00 9.999091688E-01 5.564025969E-06 2.883353429E-01
4.400000000E+00 9.999132835E-01 5.236276862E-06 2.817822670E-01
4.500000000E+00 9.999172551E-01 4.690839006E-06 2.755204388E-01
4.600000000E+00 9.999209013E-01 4.316647042E-06 2.695308640E-01
4.700000000E+00 9.999242585E-01 4.081658826E-06 2.637961648E-01
4.800000000E+00 9.999275206E-01 3.676802878E-06 2.583004114E-01
4.900000000E+00 9.999305243E-01 3.399585724E-06 2.530289744E-01
5.000000000E+00 9.999333132E-01 3.200986210E-06 2.479683949E-01
5.100000000E+00 9.999359027E-01 3.076688014E-06 2.431062695E-01
5.200000000E+00 9.999385194E-01 2.713798174E-06 2.384311490E-01
5.300000000E+00 9.999408790E-01 2.526050388E-06 2.339324480E-01
5.400000000E+00 9.999430484E-01 2.433359239E-06 2.296003657E-01
5.500000000E+00 9.999452334E-01 2.194155207E-06 2.254258136E-01
5.600000000E+00 9.999472314E-01 2.048663444E-06 2.214003526E-01
5.700000000E+00 9.999491009E-01 1.938371992E-06 2.175161359E-01
5.800000000E+00 9.999508409E-01 1.872107789E-06 2.137658577E-01
5.900000000E+00 9.999526322E-01 1.682235338E-06 2.101427076E-01
6.000000000E+00 9.999542511E-01 1.578088892E-06 2.066403291E-01
6.100000000E+00 9.999557644E-01 1.503437582E-06 2.032527827E-01
6.200000000E+00 9.999571798E-01 1.455330709E-06 1.999745120E-01
6.300000000E+00 9.999586634E-01 1.313634415E-06 1.968003134E-01
6.400000000E+00 9.999599948E-01 1.237638945E-06 1.937253085E-01
6.500000000E+00 9.999612480E-01 1.177332990E-06 1.907449192E-01
6.600000000E+00 9.999624134E-01 1.141926511E-06 1.878548446E-01
6.700000000E+00 9.999636515E-01 1.042733857E-06 1.850510410E-01
6.800000000E+00 9.999647622E-01 9.863207970E-07 1.823297021E-01
6.900000000E+00 9.999658229E-01 9.334474201E-07 1.796872427E-01
7.000000000E+00 9.999667990E-01 9.034806636E-07 1.771202821E-01
7.100000000E+00 9.999677277E-01 8.782097306E-07 1.746256302E-01
7.200000000E+00 9.999687763E-01 7.969297840E-07 1.722002742E-01
7.300000000E+00 9.999696771E-01 7.568048420E-07 1.698413664E-01
7.400000000E+00 9.999705363E-01 7.201980792E-07 1.675462128E-01
7.500000000E+00 9.999713168E-01 7.011208323E-07 1.653122633E-01
7.600000000E+00 9.999720666E-01 6.827916693E-07 1.631371019E-01
7.700000000E+00 9.999729915E-01 6.205928164E-07 1.610184383E-01
7.800000000E+00 9.999737410E-01 5.913598761E-07 1.589540993E-01
7.900000000E+00 9.999744600E-01 5.637300976E-07 1.569420221E-01
8.000000000E+00 9.999750957E-01 5.494651913E-07 1.549802468E-01
8.100000000E+00 9.999757068E-01 5.359818967E-07 1.530669104E-01
8.200000000E+00 9.999766041E-01 4.912595591E-07 1.512002408E-01
8.300000000E+00 9.999772607E-01 4.695952281E-07 1.493785512E-01
8.400000000E+00 9.999778905E-01 4.490472357E-07 1.476002351E-01
8.500000000E+00 9.999784480E-01 4.343977383E-07 1.458637617E-01
8.600000000E+00 9.999789463E-01 4.243541995E-07 1.441676715E-01
8.700000000E+00 9.999800091E-01 3.945473278E-07 1.425105718E-01
8.800000000E+00 9.999806744E-01 3.782519855E-07 1.408911335E-01
8.900000000E+00 9.999818993E-01 3.624269153E-07 1.393080870E-01
9.000000000E+00 9.999837875E-01 3.493630131E-07 1.377602194E-01
9.100000000E+00 9.999822291E-01 2.686604496E-06 1.362463708E-01
9.200000000E+00 9.999821747E-01 2.596413813E-06 1.347654320E-01
9.300000000E+00 9.999825559E-01 2.540877155E-06 1.333163414E-01
9.400000000E+00 9.999824149E-01 2.371562835E-06 1.318980824E-01
9.500000000E+00 9.999825851E-01 2.277049021E-06 1.305096815E-01
9.600000000E+00 9.999827561E-01 2.186853099E-06 1.291502057E-01
9.700000000E+00 9.999830072E-01 2.118751195E-06 1.278187603E-01
9.800000000E+00 9.999833522E-01 2.075731986E-06 1.265144872E-01
9.900000000E+00 9.999836868E-01 2.034009794E-06 1.252365631E-01
1.000000000E+01 9.999837745E-01 1.882968627E-06 1.239841975E-01
1.010000000E+01 9.999840297E-01 1.815736107E-06 1.227566311E-01
1.020000000E+01 9.999842792E-01 1.751344531E-06 1.215531348E-01
1.030000000E+01 9.999845233E-01 1.689650687E-06 1.203730072E-01
1.040000000E+01 9.999848060E-01 1.650993681E-06 1.192155745E-01
1.050000000E+01 9.999850940E-01 1.619695932E-06 1.180801881E-01
1.060000000E+01 9.999853739E-01 1.589279784E-06 1.169662240E-01
1.070000000E+01 9.999855248E-01 1.474327730E-06 1.158730817E-01
1.080000000E+01 9.999857614E-01 1.425878454E-06 1.148001828E-01
1.090000000E+01 9.999859924E-01 1.379334002E-06 1.137469701E-01
1.100000000E+01 9.999862178E-01 1.334604709E-06 1.127129068E-01
1.110000000E+01 9.999864567E-01 1.304792653E-06 1.116974752E-01
1.120000000E+01 9.999866975E-01 1.281596801E-06 1.107001763E-01
1.130000000E+01 9.999869319E-01 1.259014040E-06 1.097205287E-01
1.140000000E+01 9.999871601E-01 1.237022951E-06 1.087580679E-01
1.150000000E+01 9.999873007E-01 1.139770907E-06 1.078123456E-01
1.160000000E+01 9.999875024E-01 1.105105227E-06 1.068829288E-01
1.170000000E+01 9.999876994E-01 1.071706823E-06 1.059693995E-01
1.180000000E+01 9.999878923E-01 1.039969865E-06 1.050713538E-01
1.190000000E+01 9.999880949E-01 1.022564819E-06 1.041884012E-01
1.200000000E+01 9.999882925E-01 1.005593083E-06 1.033201645E-01
1.210000000E+01 9.999884853E-01 9.890403933E-07 1.024662789E-01
1.220000000E+01 9.999886322E-01 9.202051701E-07 1.016263914E-01
1.230000000E+01 9.999888067E-01 8.929739407E-07 1.008001605E-01
1.240000000E+01 9.999889772E-01 8.666935685E-07 9.998725601E-02
1.250000000E+01 9.999891438E-01 8.413244307E-07 9.918735797E-02
1.260000000E+01 9.999893067E-01 8.168288358E-07 9.840015671E-02
1.270000000E+01 9.999894738E-01 8.031740055E-07 9.762535233E-02
1.280000000E+01 9.999896376E-01 7.906734335E-07 9.686265426E-02
1.290000000E+01 9.999897977E-01 7.784624442E-07 9.611178098E-02
1.300000000E+01 9.999899540E-01 7.665321618E-07 9.537245958E-02
1.310000000E+01 9.999900791E-01 7.078879772E-07 9.464442554E-02
1.320000000E+01 9.999902235E-01 6.882245451E-07 9.392742232E-02
1.330000000E+01 9.999903648E-01 6.692032262E-07 9.322120110E-02
1.340000000E+01 9.999905031E-01 6.507990139E-07 9.252552049E-02
1.350000000E+01 9.999906396E-01 6.349017898E-07 9.184014627E-02
1.360000000E+01 9.999907767E-01 6.255993252E-07 9.116485107E-02
1.370000000E+01 9.999909109E-01 6.164998199E-07 9.049941420E-02
1.380000000E+01 9.999910421E-01 6.075974123E-07 8.984362135E-02
1.390000000E+01 9.999911705E-01 5.988864510E-07 8.919726436E-02
1.400000000E+01 9.999912796E-01 5.534338675E-07 8.856014104E-02
1.410000000E+01 9.999913999E-01 5.389642421E-07 8.793205493E-02
1.420000000E+01 9.999915177E-01 5.249381938E-07 8.731281511E-02
1.430000000E+01 9.999916331E-01 5.113395120E-07 8.670223598E-02
1.440000000E+01 9.999917461E-01 4.981526792E-07 8.610013712E-02
1.450000000E+01 9.999918594E-01 4.909036241E-07 8.550634307E-02
1.460000000E+01 9.999919705E-01 4.842019467E-07 8.492068319E-02
1.470000000E+01 9.999920794E-01 4.776365726E-07 8.434299147E-02
1.480000000E+01 9.999921861E-01 4.712038302E-07 8.377310639E-02
1.490000000E+01 9.999922819E-01 4.389706144E-07 8.321087078E-02
1.500000000E+01 9.999923828E-01 4.281556639E-07 8.265613164E-02
1.510000000E+01 9.999924817E-01 4.176528584E-07 8.210874004E-02
1.520000000E+01 9.999925787E-01 4.074514573E-07 8.156855096E-02
1.530000000E+01 9.999926739E-01 3.975411524E-07 8.103542318E-02
1.540000000E+01 9.999927672E-01 3.879120482E-07 8.050921913E-02
1.550000000E+01 9.999928602E-01 3.828453455E-07 7.998980481E-02
1.560000000E+01 9.999929515E-01 3.779528035E-07 7.947704965E-02
1.570000000E+01 9.999930410E-01 3.731534515E-07 7.897082641E-02
1.580000000E+01 9.999931288E-01 3.684449377E-07 7.847101105E-02
1.590000000E+01 9.999932149E-01 3.638249842E-07 7.797748268E-02
1.600000000E+01 9.999932940E-01 3.365079162E-07 7.749012341E-02
1.610000000E+01 9.999933761E-01 3.287425211E-07 7.700881830E-02
1.620000000E+01 9.999934568E-01 3.211865027E-07 7.653345522E-02
1.630000000E+01 9.999935360E-01 3.138331336E-07 7.606392482E-02
1.640000000E+01 9.999936138E-01 3.066759392E-07 7.560012040E-02
1.650000000E+01 9.999936905E-01 3.009049128E-07 7.514193785E-02
1.660000000E+01 9.999937662E-01 2.972904722E-07 7.468927558E-02
1.670000000E+01 9.999938407E-01 2.937407670E-07 7.424203441E-02
1.680000000E+01 9.999939138E-01 2.902542606E-07 7.380011753E-02
1.690000000E+01 9.999939856E-01 2.868294616E-07 7.336343045E-02
1.700000000E+01 9.999940561E-01 2.834649222E-07 7.293188086E-02
1.710000000E+01 9.999941225E-01 2.624713386E-07 7.250537863E-02
1.720000000E+01 9.999941902E-01 2.568004983E-07 7.208383573E-02
1.730000000E+01 9.999942568E-01 2.512728852E-07 7.166716616E-02
1.740000000E+01 9.999943222E-01 2.458841867E-07 7.125528590E-02
1.750000000E+01 9.999943865E-01 2.406302421E-07 7.084811283E-02
1.760000000E+01 9.999944497E-01 2.355334301E-07 7.044556674E-02
1.770000000E+01 9.999945122E-01 2.328795534E-07 7.004756919E-02
1.780000000E+01 9.999945737E-01 2.302702793E-07 6.965404352E-02
1.790000000E+01 9.999946342E-01 2.277046138E-07 6.926491478E-02
1.800000000E+01 9.999946936E-01 2.251815904E-07 6.888010970E-02
1.810000000E+01 9.999947521E-01 2.227002695E-07 6.849955661E-02
1.820000000E+01 9.999948051E-01 2.075706607E-07 6.812318542E-02
1.830000000E+01 9.999948610E-01 2.033003780E-07 6.775092757E-02
1.840000000E+01 9.999949160E-01 1.991320023E-07 6.738271601E-02
1.850000000E+01 9.999949701E-01 1.950626397E-07 6.701848511E-02
1.860000000E+01 9.999950234E-01 1.910894924E-07 6.665817068E-02
1.870000000E+01 9.999950758E-01 1.872098554E-07 6.630170987E-02
1.880000000E+01 9.999951274E-01 1.834211122E-07 6.594904120E-02
1.890000000E+01 9.999951788E-01 1.812372847E-07 6.560010448E-02
1.900000000E+01 9.999952294E-01 1.793345443E-07 6.525484077E-02
1.910000000E+01 9.999952792E-01 1.774616115E-07 6.491319239E-02
1.920000000E+01 9.999953283E-01 1.756178670E-07 6.457510284E-02
1.930000000E+01 9.999953765E-01 1.738027074E-07 6.424051682E-02
1.940000000E+01 9.999954241E-01 1.720155449E-07 6.390938013E-02
1.950000000E+01 9.999954708E-01 1.596709138E-07 6.358163972E-02
1.960000000E+01 9.999955169E-01 1.565797606E-07 6.325724360E-02
1.970000000E+01 9.999955623E-01 1.535577168E-07 6.293614084E-02
1.980000000E+01 9.999956070E-01 1.506029455E-07 6.261828154E-02
1.990000000E+01 9.999956511E-01 1.477136670E-07 6.230361681E-02
2.000000000E+01 9.999956944E-01 1.448881567E-07 6.199209873E-02
2.010000000E+01 9.999957372E-01 1.421247432E-07 6.168368033E-02
2.020000000E+01 9.999957793E-01 1.405777499E-07 6.137831557E-02
2.030000000E+01 9.999958207E-01 1.391961588E-07 6.107595934E-02
2.040000000E+01 9.999958616E-01 1.378348353E-07 6.077656738E-02
2.050000000E+01 9.999959019E-01 1.364933850E-07 6.048009632E-02
2.060000000E+01 9.999959416E-01 1.351714230E-07 6.018650362E-02
2.070000000E+01 9.999959807E-01 1.338685735E-07 5.989574756E-02
2.080000000E+01 9.999960197E-01 1.248360931E-07 5.960778724E-02
2.090000000E+01 9.999960578E-01 1.225725797E-07 5.932258252E-02
2.100000000E+01 9.999960953E-01 1.203565272E-07 5.904009403E-02
2.110000000E+01 9.999961323E-01 1.181867515E-07 5.876028316E-02
2.120000000E+01 9.999961688E-01 1.160621037E-07 5.848311201E-02
2.130000000E+01 9.999962047E-01 1.139814679E-07 5.820854341E-02
2.140000000E+01 9.999962402E-01 1.119437606E-07 5.793654087E-02
2.150000000E+01 9.999962751E-01 1.099583391E-07 5.766706859E-02
2.160000000E+01 9.999963095E-01 1.089425631E-07 5.740009142E-02
2.170000000E+01 9.999963435E-01 1.079407978E-07 5.713557487E-02
2.180000000E+01 9.999963770E-01 1.069527865E-07 5.687348507E-02
2.190000000E+01 9.999964100E-01 1.059782787E-07 5.661378879E-02
2.200000000E+01 9.999964425E-01 1.050170295E-07 5.635645339E-02
2.210000000E+01 9.999964746E-01 1.040687993E-07 5.610144681E-02
2.220000000E+01 9.999965063E-01 1.031333542E-07 5.584873759E-02
2.230000000E+01 9.999965384E-01 9.573260638E-08 5.559829482E-02
2.240000000E+01 9.999965693E-01 9.411057414E-08 5.535008815E-02
2.250000000E+01 9.999965998E-01 9.252030847E-08 5.510408776E-02
2.260000000E+01 9.999966299E-01 9.096106927E-08 5.486026436E-02
2.270000000E+01 9.999966597E-01 8.943213661E-08 5.461858919E-02
2.280000000E+01 9.999966890E-01 8.793281012E-08 5.437903397E-02
2.290000000E+01 9.999967179E-01 8.646240837E-08 5.414157094E-02
2.300000000E+01 9.999967465E-01 8.514909359E-08 5.390617281E-02
2.310000000E+01 9.999967746E-01 8.441346772E-08 5.367281275E-02
2.320000000E+01 9.999968023E-01 8.368733374E-08 5.344146442E-02
2.330000000E+01 9.999968297E-01 8.297052904E-08 5.321210191E-02
2.340000000E+01 9.999968567E-01 8.226289450E-08 5.298469977E-02
2.350000000E+01 9.999968834E-01 8.156427435E-08 5.275923296E-02
2.360000000E+01 9.999969098E-01 8.087451614E-08 5.253567689E-02
2.370000000E+01 9.999969358E-01 8.019347062E-08 5.231400737E-02
2.380000000E+01 9.999969623E-01 7.469044970E-08 5.209420061E-02
2.390000000E+01 9.999969878E-01 7.350411356E-08 5.187623325E-02
2.400000000E+01 9.999970129E-01 7.233956459E-08 5.166008227E-02
2.410000000E+01 9.999970378E-01 7.119632664E-08 5.144572509E-02
2.420000000E+01 9.999970623E-01 7.007393575E-08 5.123313945E-02
2.430000000E+01 9.999970865E-01 6.897193981E-08 5.102230348E-02
2.440000000E+01 9.999971104E-01 6.788989815E-08 5.081319568E-02
2.450000000E+01 9.999971341E-01 6.682738129E-08 5.060579488E-02
2.460000000E+01 9.999971574E-01 6.592995894E-08 5.040008027E-02
2.470000000E+01 9.999971804E-01 6.539719378E-08 5.019603136E-02
2.480000000E+01 9.999972030E-01 6.487086035E-08 4.999362801E-02
2.490000000E+01 9.999972255E-01 6.435085555E-08 4.979285038E-02
2.500000000E+01 9.999972476E-01 6.383707832E-08 4.959367898E-02
2.510000000E+01 9.999972695E-01 6.332942961E-08 4.939609460E-02
2.520000000E+01 9.999972911E-01 6.282781234E-08 4.920007836E-02
2.530000000E+01 9.999973125E-01 6.233213134E-08 4.900561164E-02
2.540000000E+01 9.999973344E-01 5.825858685E-08 4.881267616E-02
2.550000000E+01 9.999973554E-01 5.738937872E-08 4.862125391E-02
2.560000000E+01 9.999973761E-01 5.653515029E-08 4.843132713E-02
2.570000000E+01 9.999973965E-01 5.569559437E-08 4.824287839E-02
2.580000000E+01 9.999974168E-01 5.487041118E-08 4.805589049E-02
2.590000000E+01 9.999974368E-01 5.405930807E-08 4.787034651E-02
2.600000000E+01 9.999974565E-01 5.326199941E-08 4.768622979E-02
2.610000000E+01 9.999974761E-01 5.247820632E-08 4.750352393E-02
2.620000000E+01 9.999974954E-01 5.170765654E-08 4.732221277E-02
2.630000000E+01 9.999975144E-01 5.108749593E-08 4.714228040E-02
2.640000000E+01 9.999975332E-01 5.070120245E-08 4.696371116E-02
2.650000000E+01 9.999975518E-01 5.031927385E-08 4.678648961E-02
2.660000000E+01 9.999975702E-01 4.994164461E-08 4.661060055E-02
2.670000000E+01 9.999975884E-01 4.956825045E-08 4.643602901E-02
2.680000000E+01 9.999976063E-01 4.919902826E-08 4.626276025E-02
2.690000000E+01 9.999976241E-01 4.883391614E-08 4.609077972E-02
2.700000000E+01 9.999976417E-01 4.847285331E-08 4.592007313E-02
2.710000000E+01 9.999976590E-01 4.811578010E-08 4.575062637E-02
2.720000000E+01 9.999976769E-01 4.474489462E-08 4.558242554E-02
2.730000000E+01 9.999976940E-01 4.411037504E-08 4.541545694E-02
2.740000000E+01 9.999977108E-01 4.348613649E-08 4.524970710E-02
2.750000000E+01 9.999977275E-01 4.287198128E-08 4.508516271E-02
2.760000000E+01 9.999977440E-01 4.226771619E-08 4.492181067E-02
2.770000000E+01 9.999977604E-01 4.167315230E-08 4.475963807E-02
2.780000000E+01 9.999977765E-01 4.108810494E-08 4.459863218E-02
2.790000000E+01 9.999977925E-01 4.051239354E-08 4.443878045E-02
2.800000000E+01 9.999978083E-01 3.994584154E-08 4.428007052E-02
2.810000000E+01 9.999978239E-01 3.945344083E-08 4.412249020E-02
2.820000000E+01 9.999978393E-01 3.917412531E-08 4.396602747E-02
2.830000000E+01 9.999978546E-01 3.889776550E-08 4.381067048E-02
2.840000000E+01 9.999978697E-01 3.862431984E-08 4.365640756E-02
2.850000000E+01 9.999978846E-01 3.835374751E-08 4.350322718E-02
2.860000000E+01 9.999978993E-01 3.808600838E-08 4.335111799E-02
2.870000000E+01 9.999979140E-01 3.782106304E-08 4.320006880E-02
2.880000000E+01 9.999979284E-01 3.755887275E-08 4.305006856E-02
2.890000000E+01 9.999979427E-01 3.729939945E-08 4.290110639E-02
2.900000000E+01 9.999979569E-01 3.704260572E-08 4.275317154E-02
2.910000000E+01 9.999979717E-01 3.438809750E-08 4.260625342E-02
2.920000000E+01 9.999979856E-01 3.392909045E-08 4.246034160E-02
2.930000000E+01 9.999979994E-01 3.347705562E-08 4.231542575E-02
2.940000000E+01 9.999980131E-01 3.303186746E-08 4.217149573E-02
2.950000000E+01 9.999980266E-01 3.259340304E-08 4.202854151E-02
2.960000000E+01 9.999980399E-01 3.216154202E-08 4.188655320E-02
2.970000000E+01 9.999980532E-01 3.173616658E-08 4.174552103E-02
2.980000000E+01 9.999980663E-01 3.131716134E-08 4.160543539E-02
2.990000000E+01 9.999980793E-01 3.090441335E-08 4.146628678E-02
3.000000000E+01 9.999980921E-01 3.049781198E-08 4.132806582E-02
3.010000000E+01 9.999981048E-01 3.026941940E-08 4.119076328E-02
3.020000000E+01 9.999981173E-01 3.006929156E-08 4.105437002E-02
3.030000000E+01 9.999981297E-01 2.987114190E-08 4.091887705E-02
3.040000000E+01 9.999981420E-01 2.967494446E-08 4.078427548E-02
3.050000000E+01 9.999981542E-01 2.948067366E-08 4.065055654E-02
3.060000000E+01 9.999981662E-01 2.928830436E-08 4.051771159E-02
3.070000000E+01 9.999981781E-01 2.909781183E-08 4.038573207E-02
3.080000000E+01 9.999981900E-01 2.890917173E-08 4.025460956E-02
3.090000000E+01 9.999982017E-01 2.872236012E-08 4.012433575E-02
3.100000000E+01 9.999982132E-01 2.853735345E-08 3.999490241E-02
3.110000000E+01 9.999982254E-01 2.651980728E-08 3.986630143E-02
3.120000000E+01 9.999982368E-01 2.618877076E-08 3.973852483E-02
3.130000000E+01 9.999982481E-01 2.586244074E-08 3.961156468E-02
3.140000000E+01 9.999982593E-01 2.554073787E-08 3.948541320E-02
3.150000000E+01 9.999982704E-01 2.522358433E-08 3.936006269E-02
3.160000000E+01 9.999982814E-01 2.491090386E-08 3.923550552E-02
3.170000000E+01 9.999982923E-01 2.460262169E-08 3.911173421E-02
3.180000000E+01 9.999983031E-01 2.429866449E-08 3.898874134E-02
3.190000000E+01 9.999983137E-01 2.399896039E-08 3.886651958E-02
3.200000000E+01 9.999983243E-01 2.370343890E-08 3.874506171E-02
3.210000000E+01 9.999983348E-01 2.343068311E-08 3.862436058E-02
3.220000000E+01 9.999983451E-01 2.328537690E-08 3.850440915E-02
3.230000000E+01 9.999983553E-01 2.314141819E-08 3.838520045E-02
3.240000000E+01 9.999983655E-01 2.299879037E-08 3.826672761E-02
3.250000000E+01 9.999983755E-01 2.285747710E-08 3.814898383E-02
3.260000000E+01 9.999983855E-01 2.271746225E-08 3.803196241E-02
3.270000000E+01 9.999983953E-01 2.257872998E-08 3.791565672E-02
