# 08/03/2022 
# Density retrieved from www.chemicool.com/densities.html 
# Includes the real (n) and complex (k) part of the  refractive index. 
# Element, Dy  (Z = 66) 
# Nominal density, g cm-3 =  8.536 
#    E [keV]      n       k    Wavelength [nm] 
2.000000000E+00 9.997107213E-01 1.401365676E-04 6.199209873E-01
2.100000000E+00 9.997303715E-01 1.254093975E-04 5.904009403E-01
2.200000000E+00 9.997467794E-01 1.075879593E-04 5.635645339E-01
2.300000000E+00 9.997636093E-01 9.309038765E-05 5.390617281E-01
2.400000000E+00 9.997795178E-01 8.117052041E-05 5.166008227E-01
2.500000000E+00 9.997942287E-01 7.108002287E-05 4.959367898E-01
2.600000000E+00 9.998069835E-01 6.242998983E-05 4.768622979E-01
2.700000000E+00 9.998189694E-01 5.494375918E-05 4.592007313E-01
2.800000000E+00 9.998305045E-01 4.866142029E-05 4.428007052E-01
2.900000000E+00 9.998410730E-01 4.327058738E-05 4.275317154E-01
3.000000000E+00 9.998507156E-01 3.854732344E-05 4.132806582E-01
3.100000000E+00 9.998595310E-01 3.428505195E-05 3.999490241E-01
3.200000000E+00 9.998677646E-01 3.062218061E-05 3.874506171E-01
3.300000000E+00 9.998753767E-01 2.746457055E-05 3.757096893E-01
3.400000000E+00 9.998822001E-01 2.468987070E-05 3.646594043E-01
3.500000000E+00 9.998887008E-01 2.224854604E-05 3.542405642E-01
3.600000000E+00 9.998947229E-01 2.020028665E-05 3.444005485E-01
3.700000000E+00 9.999002081E-01 1.824854289E-05 3.350924256E-01
3.800000000E+00 9.999053732E-01 1.662863777E-05 3.262742038E-01
3.900000000E+00 9.999101700E-01 1.511109489E-05 3.179081986E-01
4.000000000E+00 9.999146254E-01 1.387327551E-05 3.099604936E-01
4.100000000E+00 9.999182483E-01 1.286409008E-05 3.024004816E-01
4.200000000E+00 9.999221931E-01 1.160774538E-05 2.952004701E-01
4.300000000E+00 9.999258306E-01 1.067183210E-05 2.883353429E-01
4.400000000E+00 9.999291834E-01 1.006156001E-05 2.817822670E-01
4.500000000E+00 9.999324353E-01 9.081589093E-06 2.755204388E-01
4.600000000E+00 9.999354172E-01 8.396891990E-06 2.695308640E-01
4.700000000E+00 9.999381598E-01 7.952549409E-06 2.637961648E-01
4.800000000E+00 9.999408507E-01 7.227402147E-06 2.583004114E-01
4.900000000E+00 9.999433170E-01 6.719337841E-06 2.530289744E-01
5.000000000E+00 9.999455998E-01 6.345819960E-06 2.479683949E-01
5.100000000E+00 9.999477122E-01 6.099404037E-06 2.431062695E-01
5.200000000E+00 9.999498979E-01 5.455614568E-06 2.384311490E-01
5.300000000E+00 9.999518389E-01 5.107150748E-06 2.339324480E-01
5.400000000E+00 9.999536061E-01 4.919748440E-06 2.296003657E-01
5.500000000E+00 9.999554389E-01 4.482758221E-06 2.254258136E-01
5.600000000E+00 9.999570883E-01 4.207827652E-06 2.214003526E-01
5.700000000E+00 9.999586223E-01 3.994564961E-06 2.175161359E-01
5.800000000E+00 9.999600368E-01 3.858008787E-06 2.137658577E-01
5.900000000E+00 9.999615729E-01 3.496292317E-06 2.101427076E-01
6.000000000E+00 9.999629169E-01 3.291997582E-06 2.066403291E-01
6.100000000E+00 9.999641582E-01 3.142295234E-06 2.032527827E-01
6.200000000E+00 9.999653051E-01 3.041748326E-06 1.999745120E-01
6.300000000E+00 9.999666192E-01 2.768194910E-06 1.968003134E-01
6.400000000E+00 9.999677357E-01 2.616972759E-06 1.937253085E-01
6.500000000E+00 9.999687729E-01 2.495315499E-06 1.907449192E-01
6.600000000E+00 9.999697120E-01 2.420272723E-06 1.878548446E-01
6.700000000E+00 9.999708590E-01 2.226543590E-06 1.850510410E-01
6.800000000E+00 9.999718089E-01 2.113054745E-06 1.823297021E-01
6.900000000E+00 9.999727137E-01 2.006526851E-06 1.796872427E-01
7.000000000E+00 9.999735010E-01 1.943096439E-06 1.771202821E-01
7.100000000E+00 9.999742422E-01 1.888746787E-06 1.746256302E-01
7.200000000E+00 9.999754084E-01 1.728218206E-06 1.722002742E-01
7.300000000E+00 9.999762248E-01 1.646148825E-06 1.698413664E-01
7.400000000E+00 9.999769932E-01 1.570999613E-06 1.675462128E-01
7.500000000E+00 9.999776026E-01 1.529385579E-06 1.653122633E-01
7.600000000E+00 9.999788541E-01 1.426827777E-06 1.631371019E-01
7.700000000E+00 9.999801398E-01 1.361717175E-06 1.610184383E-01
7.800000000E+00 9.999823588E-01 1.305638824E-06 1.589540993E-01
7.900000000E+00 9.999807827E-01 3.579673486E-06 1.569420221E-01
8.000000000E+00 9.999810013E-01 3.448213669E-06 1.549802468E-01
8.100000000E+00 9.999814675E-01 3.363598153E-06 1.530669104E-01
8.200000000E+00 9.999816105E-01 3.090393988E-06 1.512002408E-01
8.300000000E+00 9.999819375E-01 2.945373318E-06 1.493785512E-01
8.400000000E+00 9.999822568E-01 2.807991838E-06 1.476002351E-01
8.500000000E+00 9.999828763E-01 2.685851812E-06 1.458637617E-01
8.600000000E+00 9.999835829E-01 3.118557387E-06 1.441676715E-01
8.700000000E+00 9.999834009E-01 3.428071440E-06 1.425105718E-01
8.800000000E+00 9.999835864E-01 3.313318111E-06 1.408911335E-01
8.900000000E+00 9.999837942E-01 3.160259564E-06 1.393080870E-01
9.000000000E+00 9.999841716E-01 3.012339981E-06 1.377602194E-01
9.100000000E+00 9.999844201E-01 3.353920097E-06 1.362463708E-01
9.200000000E+00 9.999844910E-01 3.223282724E-06 1.347654320E-01
9.300000000E+00 9.999847646E-01 3.141621323E-06 1.333163414E-01
9.400000000E+00 9.999850870E-01 3.075133864E-06 1.318980824E-01
9.500000000E+00 9.999851123E-01 2.883821310E-06 1.305096815E-01
9.600000000E+00 9.999853227E-01 2.780623663E-06 1.291502057E-01
9.700000000E+00 9.999855707E-01 2.700111658E-06 1.278187603E-01
9.800000000E+00 9.999858636E-01 2.645288483E-06 1.265144872E-01
9.900000000E+00 9.999861478E-01 2.592118211E-06 1.252365631E-01
1.000000000E+01 9.999862425E-01 2.403040203E-06 1.239841975E-01
1.010000000E+01 9.999864643E-01 2.318221221E-06 1.227566311E-01
1.020000000E+01 9.999866810E-01 2.236970585E-06 1.215531348E-01
1.030000000E+01 9.999868928E-01 2.159108835E-06 1.203730072E-01
1.040000000E+01 9.999871333E-01 2.109927825E-06 1.192155745E-01
1.050000000E+01 9.999873772E-01 2.069930101E-06 1.180801881E-01
1.060000000E+01 9.999876142E-01 2.031059039E-06 1.169662240E-01
1.070000000E+01 9.999877467E-01 1.873614643E-06 1.158730817E-01
1.080000000E+01 9.999879482E-01 1.809266303E-06 1.148001828E-01
1.090000000E+01 9.999881448E-01 1.747490167E-06 1.137469701E-01
1.100000000E+01 9.999883367E-01 1.688164097E-06 1.127129068E-01
1.110000000E+01 9.999885391E-01 1.649652700E-06 1.116974752E-01
1.120000000E+01 9.999887429E-01 1.620326126E-06 1.107001763E-01
1.130000000E+01 9.999889413E-01 1.591774683E-06 1.097205287E-01
1.140000000E+01 9.999891344E-01 1.563971293E-06 1.087580679E-01
1.150000000E+01 9.999892629E-01 1.434539595E-06 1.078123456E-01
1.160000000E+01 9.999894354E-01 1.389533462E-06 1.068829288E-01
1.170000000E+01 9.999896038E-01 1.346192269E-06 1.059693995E-01
1.180000000E+01 9.999897685E-01 1.305049565E-06 1.050713538E-01
1.190000000E+01 9.999899397E-01 1.283208117E-06 1.041884012E-01
1.200000000E+01 9.999901067E-01 1.261910426E-06 1.033201645E-01
1.210000000E+01 9.999902695E-01 1.241138593E-06 1.024662789E-01
1.220000000E+01 9.999903990E-01 1.154881667E-06 1.016263914E-01
1.230000000E+01 9.999905476E-01 1.120736394E-06 1.008001605E-01
1.240000000E+01 9.999906928E-01 1.087783001E-06 9.998725601E-02
1.250000000E+01 9.999908346E-01 1.055971831E-06 9.918735797E-02
1.260000000E+01 9.999909733E-01 1.025255646E-06 9.840015671E-02
1.270000000E+01 9.999911144E-01 1.008118779E-06 9.762535233E-02
1.280000000E+01 9.999912527E-01 9.924284542E-07 9.686265426E-02
1.290000000E+01 9.999913878E-01 9.771016041E-07 9.611178098E-02
1.300000000E+01 9.999915198E-01 9.621270884E-07 9.537245958E-02
1.310000000E+01 9.999916296E-01 8.897729570E-07 9.464442554E-02
1.320000000E+01 9.999917523E-01 8.653127678E-07 9.392742232E-02
1.330000000E+01 9.999918723E-01 8.416482334E-07 9.322120110E-02
1.340000000E+01 9.999919897E-01 8.187484307E-07 9.252552049E-02
1.350000000E+01 9.999921054E-01 7.989348370E-07 9.184014627E-02
1.360000000E+01 9.999922210E-01 7.872289903E-07 9.116485107E-02
1.370000000E+01 9.999923342E-01 7.757785393E-07 9.049941420E-02
1.380000000E+01 9.999924449E-01 7.645761082E-07 8.984362135E-02
1.390000000E+01 9.999925532E-01 7.536145854E-07 8.919726436E-02
1.400000000E+01 9.999926484E-01 6.982323379E-07 8.856014104E-02
1.410000000E+01 9.999927504E-01 6.803251520E-07 8.793205493E-02
1.420000000E+01 9.999928502E-01 6.629629890E-07 8.731281511E-02
1.430000000E+01 9.999929481E-01 6.461260057E-07 8.670223598E-02
1.440000000E+01 9.999930439E-01 6.297952054E-07 8.610013712E-02
1.450000000E+01 9.999931394E-01 6.206526011E-07 8.550634307E-02
1.460000000E+01 9.999932330E-01 6.121796274E-07 8.492068319E-02
1.470000000E+01 9.999933248E-01 6.038789827E-07 8.434299147E-02
1.480000000E+01 9.999934147E-01 5.957460253E-07 8.377310639E-02
1.490000000E+01 9.999934975E-01 5.567274034E-07 8.321087078E-02
1.500000000E+01 9.999935829E-01 5.433640879E-07 8.265613164E-02
1.510000000E+01 9.999936666E-01 5.303827256E-07 8.210874004E-02
1.520000000E+01 9.999937487E-01 5.177702411E-07 8.156855096E-02
1.530000000E+01 9.999938293E-01 5.055140833E-07 8.103542318E-02
1.540000000E+01 9.999939082E-01 4.936022021E-07 8.050921913E-02
1.550000000E+01 9.999939866E-01 4.871608473E-07 7.998980481E-02
1.560000000E+01 9.999940634E-01 4.809352135E-07 7.947704965E-02
1.570000000E+01 9.999941388E-01 4.748281617E-07 7.897082641E-02
1.580000000E+01 9.999942128E-01 4.688366991E-07 7.847101105E-02
1.590000000E+01 9.999942853E-01 4.629579272E-07 7.797748268E-02
1.600000000E+01 9.999943505E-01 4.292747618E-07 7.749012341E-02
1.610000000E+01 9.999944195E-01 4.195502625E-07 7.700881830E-02
1.620000000E+01 9.999944872E-01 4.100861746E-07 7.653345522E-02
1.630000000E+01 9.999945537E-01 4.008741606E-07 7.606392482E-02
1.640000000E+01 9.999946191E-01 3.919061958E-07 7.560012040E-02
1.650000000E+01 9.999946836E-01 3.846401690E-07 7.514193785E-02
1.660000000E+01 9.999947474E-01 3.800199086E-07 7.468927558E-02
1.670000000E+01 9.999948101E-01 3.754823981E-07 7.424203441E-02
1.680000000E+01 9.999948717E-01 3.710256733E-07 7.380011753E-02
1.690000000E+01 9.999949322E-01 3.666478275E-07 7.336343045E-02
1.700000000E+01 9.999949917E-01 3.623470104E-07 7.293188086E-02
1.710000000E+01 9.999950479E-01 3.362566003E-07 7.250537863E-02
1.720000000E+01 9.999951050E-01 3.291097603E-07 7.208383573E-02
1.730000000E+01 9.999951611E-01 3.221423364E-07 7.166716616E-02
1.740000000E+01 9.999952163E-01 3.153489432E-07 7.125528590E-02
1.750000000E+01 9.999952705E-01 3.087243851E-07 7.084811283E-02
1.760000000E+01 9.999953238E-01 3.022962737E-07 7.044556674E-02
1.770000000E+01 9.999953765E-01 2.988901457E-07 7.004756919E-02
1.780000000E+01 9.999954283E-01 2.955412629E-07 6.965404352E-02
1.790000000E+01 9.999954793E-01 2.922483498E-07 6.926491478E-02
1.800000000E+01 9.999955293E-01 2.890101659E-07 6.888010970E-02
1.810000000E+01 9.999955786E-01 2.858255052E-07 6.849955661E-02
1.820000000E+01 9.999956266E-01 2.671443514E-07 6.812318542E-02
1.830000000E+01 9.999956742E-01 2.617722329E-07 6.775092757E-02
1.840000000E+01 9.999957210E-01 2.565272555E-07 6.738271601E-02
1.850000000E+01 9.999957671E-01 2.514058243E-07 6.701848511E-02
1.860000000E+01 9.999958124E-01 2.464044635E-07 6.665817068E-02
1.870000000E+01 9.999958571E-01 2.415198118E-07 6.630170987E-02
1.880000000E+01 9.999959009E-01 2.367486184E-07 6.594904120E-02
1.890000000E+01 9.999959442E-01 2.339460797E-07 6.560010448E-02
1.900000000E+01 9.999959868E-01 2.314899699E-07 6.525484077E-02
1.910000000E+01 9.999960287E-01 2.290723366E-07 6.491319239E-02
1.920000000E+01 9.999960700E-01 2.266923804E-07 6.457510284E-02
1.930000000E+01 9.999961106E-01 2.243493224E-07 6.424051682E-02
1.940000000E+01 9.999961506E-01 2.220424039E-07 6.390938013E-02
1.950000000E+01 9.999961914E-01 2.068557485E-07 6.358163972E-02
1.960000000E+01 9.999962303E-01 2.029616053E-07 6.325724360E-02
1.970000000E+01 9.999962687E-01 1.991536463E-07 6.293614084E-02
1.980000000E+01 9.999963065E-01 1.954295926E-07 6.261828154E-02
1.990000000E+01 9.999963437E-01 1.917872363E-07 6.230361681E-02
2.000000000E+01 9.999963804E-01 1.882244373E-07 6.199209873E-02
2.010000000E+01 9.999964165E-01 1.847391214E-07 6.168368033E-02
2.020000000E+01 9.999964519E-01 1.827397006E-07 6.137831557E-02
2.030000000E+01 9.999964868E-01 1.809437439E-07 6.107595934E-02
2.040000000E+01 9.999965211E-01 1.791741336E-07 6.077656738E-02
2.050000000E+01 9.999965550E-01 1.774303568E-07 6.048009632E-02
2.060000000E+01 9.999965883E-01 1.757119131E-07 6.018650362E-02
2.070000000E+01 9.999966212E-01 1.740183142E-07 5.989574756E-02
2.080000000E+01 9.999966553E-01 1.628925061E-07 5.960778724E-02
2.090000000E+01 9.999966874E-01 1.600294069E-07 5.932258252E-02
2.100000000E+01 9.999967191E-01 1.572256649E-07 5.904009403E-02
2.110000000E+01 9.999967504E-01 1.544798083E-07 5.876028316E-02
2.120000000E+01 9.999967812E-01 1.517904081E-07 5.848311201E-02
2.130000000E+01 9.999968115E-01 1.491560767E-07 5.820854341E-02
2.140000000E+01 9.999968415E-01 1.465754664E-07 5.793654087E-02
2.150000000E+01 9.999968710E-01 1.440599729E-07 5.766706859E-02
2.160000000E+01 9.999968999E-01 1.427291719E-07 5.740009142E-02
2.170000000E+01 9.999969284E-01 1.414167267E-07 5.713557487E-02
2.180000000E+01 9.999969565E-01 1.401223013E-07 5.687348507E-02
2.190000000E+01 9.999969842E-01 1.388455671E-07 5.661378879E-02
2.200000000E+01 9.999970116E-01 1.375862034E-07 5.635645339E-02
2.210000000E+01 9.999970386E-01 1.363438964E-07 5.610144681E-02
2.220000000E+01 9.999970652E-01 1.351183395E-07 5.584873759E-02
2.230000000E+01 9.999970933E-01 1.259935049E-07 5.559829482E-02
2.240000000E+01 9.999971194E-01 1.239311558E-07 5.535008815E-02
2.250000000E+01 9.999971451E-01 1.219086923E-07 5.510408776E-02
2.260000000E+01 9.999971706E-01 1.199251913E-07 5.486026436E-02
2.270000000E+01 9.999971956E-01 1.179797546E-07 5.461858919E-02
2.280000000E+01 9.999972204E-01 1.160715084E-07 5.437903397E-02
2.290000000E+01 9.999972448E-01 1.141996022E-07 5.414157094E-02
2.300000000E+01 9.999972689E-01 1.125206288E-07 5.390617281E-02
2.310000000E+01 9.999972925E-01 1.115485329E-07 5.367281275E-02
2.320000000E+01 9.999973158E-01 1.105889800E-07 5.344146442E-02
2.330000000E+01 9.999973387E-01 1.096417555E-07 5.321210191E-02
2.340000000E+01 9.999973614E-01 1.087066488E-07 5.298469977E-02
2.350000000E+01 9.999973839E-01 1.077834543E-07 5.275923296E-02
2.360000000E+01 9.999974060E-01 1.068719704E-07 5.253567689E-02
2.370000000E+01 9.999974278E-01 1.059719999E-07 5.231400737E-02
2.380000000E+01 9.999974510E-01 9.919727079E-08 5.209420061E-02
2.390000000E+01 9.999974725E-01 9.768334602E-08 5.187623325E-02
2.400000000E+01 9.999974937E-01 9.619682190E-08 5.166008227E-02
2.410000000E+01 9.999975147E-01 9.473710412E-08 5.144572509E-02
2.420000000E+01 9.999975354E-01 9.330361351E-08 5.123313945E-02
2.430000000E+01 9.999975558E-01 9.189578560E-08 5.102230348E-02
2.440000000E+01 9.999975759E-01 9.051307017E-08 5.081319568E-02
2.450000000E+01 9.999975959E-01 8.915493089E-08 5.060579488E-02
2.460000000E+01 9.999976155E-01 8.799873363E-08 5.040008027E-02
2.470000000E+01 9.999976348E-01 8.728763567E-08 5.019603136E-02
2.480000000E+01 9.999976538E-01 8.658512234E-08 4.999362801E-02
2.490000000E+01 9.999976726E-01 8.589105602E-08 4.979285038E-02
2.500000000E+01 9.999976912E-01 8.520530183E-08 4.959367898E-02
2.510000000E+01 9.999977095E-01 8.452772757E-08 4.939609460E-02
2.520000000E+01 9.999977277E-01 8.385820365E-08 4.920007836E-02
2.530000000E+01 9.999977456E-01 8.319660305E-08 4.900561164E-02
2.540000000E+01 9.999977647E-01 7.816843088E-08 4.881267616E-02
2.550000000E+01 9.999977824E-01 7.705221579E-08 4.862125391E-02
2.560000000E+01 9.999977998E-01 7.595493136E-08 4.843132713E-02
2.570000000E+01 9.999978171E-01 7.487619260E-08 4.824287839E-02
2.580000000E+01 9.999978341E-01 7.381562373E-08 4.805589049E-02
2.590000000E+01 9.999978509E-01 7.277285790E-08 4.787034651E-02
2.600000000E+01 9.999978676E-01 7.174753698E-08 4.768622979E-02
2.610000000E+01 9.999978840E-01 7.073931130E-08 4.750352393E-02
2.620000000E+01 9.999979003E-01 6.974783940E-08 4.732221277E-02
2.630000000E+01 9.999979163E-01 6.894051635E-08 4.714228040E-02
2.640000000E+01 9.999979321E-01 6.841922888E-08 4.696371116E-02
2.650000000E+01 9.999979477E-01 6.790383162E-08 4.678648961E-02
2.660000000E+01 9.999979631E-01 6.739423619E-08 4.661060055E-02
2.670000000E+01 9.999979783E-01 6.689035582E-08 4.643602901E-02
2.680000000E+01 9.999979934E-01 6.639210537E-08 4.626276025E-02
2.690000000E+01 9.999980083E-01 6.589940128E-08 4.609077972E-02
2.700000000E+01 9.999980230E-01 6.541216153E-08 4.592007313E-02
2.710000000E+01 9.999980375E-01 6.493030563E-08 4.575062637E-02
2.720000000E+01 9.999980532E-01 6.064227861E-08 4.558242554E-02
2.730000000E+01 9.999980676E-01 5.981067649E-08 4.541545694E-02
2.740000000E+01 9.999980818E-01 5.899238947E-08 4.524970710E-02
2.750000000E+01 9.999980959E-01 5.818716308E-08 4.508516271E-02
2.760000000E+01 9.999981098E-01 5.739474858E-08 4.492181067E-02
2.770000000E+01 9.999981235E-01 5.661490274E-08 4.475963807E-02
2.780000000E+01 9.999981371E-01 5.584738778E-08 4.459863218E-02
2.790000000E+01 9.999981506E-01 5.509197119E-08 4.443878045E-02
2.800000000E+01 9.999981639E-01 5.434842557E-08 4.428007052E-02
2.810000000E+01 9.999981770E-01 5.369883283E-08 4.412249020E-02
2.820000000E+01 9.999981899E-01 5.331866529E-08 4.396602747E-02
2.830000000E+01 9.999982027E-01 5.294252068E-08 4.381067048E-02
2.840000000E+01 9.999982153E-01 5.257034243E-08 4.365640756E-02
2.850000000E+01 9.999982278E-01 5.220207496E-08 4.350322718E-02
2.860000000E+01 9.999982402E-01 5.183766369E-08 4.335111799E-02
2.870000000E+01 9.999982524E-01 5.147705495E-08 4.320006880E-02
2.880000000E+01 9.999982645E-01 5.112019602E-08 4.305006856E-02
2.890000000E+01 9.999982765E-01 5.076703510E-08 4.290110639E-02
2.900000000E+01 9.999982884E-01 5.041752127E-08 4.275317154E-02
2.910000000E+01 9.999983015E-01 4.700092365E-08 4.260625342E-02
2.920000000E+01 9.999983133E-01 4.639315587E-08 4.246034160E-02
2.930000000E+01 9.999983249E-01 4.579451772E-08 4.231542575E-02
2.940000000E+01 9.999983364E-01 4.520484572E-08 4.217149573E-02
2.950000000E+01 9.999983478E-01 4.462397981E-08 4.202854151E-02
2.960000000E+01 9.999983591E-01 4.405176327E-08 4.188655320E-02
2.970000000E+01 9.999983702E-01 4.348804268E-08 4.174552103E-02
2.980000000E+01 9.999983813E-01 4.293266776E-08 4.160543539E-02
2.990000000E+01 9.999983922E-01 4.238549140E-08 4.146628678E-02
3.000000000E+01 9.999984030E-01 4.184636948E-08 4.132806582E-02
3.010000000E+01 9.999984136E-01 4.153541171E-08 4.119076328E-02
3.020000000E+01 9.999984241E-01 4.126079817E-08 4.105437002E-02
3.030000000E+01 9.999984345E-01 4.098889908E-08 4.091887705E-02
3.040000000E+01 9.999984448E-01 4.071967880E-08 4.078427548E-02
3.050000000E+01 9.999984550E-01 4.045310224E-08 4.065055654E-02
3.060000000E+01 9.999984650E-01 4.018913491E-08 4.051771159E-02
3.070000000E+01 9.999984750E-01 3.992774285E-08 4.038573207E-02
3.080000000E+01 9.999984849E-01 3.966889269E-08 4.025460956E-02
3.090000000E+01 9.999984947E-01 3.941255157E-08 4.012433575E-02
3.100000000E+01 9.999985044E-01 3.915868716E-08 3.999490241E-02
3.110000000E+01 9.999985153E-01 3.655661716E-08 3.986630143E-02
3.120000000E+01 9.999985250E-01 3.611593923E-08 3.973852483E-02
3.130000000E+01 9.999985345E-01 3.568145012E-08 3.961156468E-02
3.140000000E+01 9.999985439E-01 3.525304613E-08 3.948541320E-02
3.150000000E+01 9.999985533E-01 3.483062557E-08 3.936006269E-02
3.160000000E+01 9.999985625E-01 3.441408877E-08 3.923550552E-02
3.170000000E+01 9.999985717E-01 3.400333800E-08 3.911173421E-02
3.180000000E+01 9.999985808E-01 3.359827743E-08 3.898874134E-02
3.190000000E+01 9.999985897E-01 3.319881308E-08 3.886651958E-02
3.200000000E+01 9.999985986E-01 3.280485281E-08 3.874506171E-02
3.210000000E+01 9.999986075E-01 3.244020872E-08 3.862436058E-02
3.220000000E+01 9.999986161E-01 3.223902962E-08 3.850440915E-02
3.230000000E+01 9.999986246E-01 3.203971615E-08 3.838520045E-02
3.240000000E+01 9.999986331E-01 3.184224534E-08 3.826672761E-02
3.250000000E+01 9.999986415E-01 3.164659452E-08 3.814898383E-02
3.260000000E+01 9.999986498E-01 3.145274141E-08 3.803196241E-02
3.270000000E+01 9.999986581E-01 3.126066405E-08 3.791565672E-02
