# 08/03/2022 
# Density retrieved from www.chemicool.com/densities.html 
# Includes the real (n) and complex (k) part of the  refractive index. 
# Element, Eu  (Z = 63) 
# Nominal density, g cm-3 =  5.248 
#    E [keV]      n       k    Wavelength [nm] 
2.000000000E+00 9.998076727E-01 8.167723105E-05 6.199209873E-01
2.100000000E+00 9.998221293E-01 6.997193847E-05 5.904009403E-01
2.200000000E+00 9.998351868E-01 5.997050217E-05 5.635645339E-01
2.300000000E+00 9.998466573E-01 5.182202855E-05 5.390617281E-01
2.400000000E+00 9.998573896E-01 4.498666327E-05 5.166008227E-01
2.500000000E+00 9.998675483E-01 3.925274561E-05 4.959367898E-01
2.600000000E+00 9.998767561E-01 3.432302435E-05 4.768622979E-01
2.700000000E+00 9.998851233E-01 3.014298647E-05 4.592007313E-01
2.800000000E+00 9.998927473E-01 2.667779726E-05 4.428007052E-01
2.900000000E+00 9.998996564E-01 2.370862005E-05 4.275317154E-01
3.000000000E+00 9.999057068E-01 2.112800031E-05 4.132806582E-01
3.100000000E+00 9.999115059E-01 1.877783203E-05 3.999490241E-01
3.200000000E+00 9.999168395E-01 1.675907093E-05 3.874506171E-01
3.300000000E+00 9.999216770E-01 1.500723974E-05 3.757096893E-01
3.400000000E+00 9.999261910E-01 1.347757987E-05 3.646594043E-01
3.500000000E+00 9.999303497E-01 1.214209456E-05 3.542405642E-01
3.600000000E+00 9.999341825E-01 1.102130102E-05 3.444005485E-01
3.700000000E+00 9.999377049E-01 9.950981470E-06 3.350924256E-01
3.800000000E+00 9.999409800E-01 9.070613287E-06 3.262742038E-01
3.900000000E+00 9.999440207E-01 8.245451043E-06 3.179081986E-01
4.000000000E+00 9.999468322E-01 7.572008193E-06 3.099604936E-01
4.100000000E+00 9.999491326E-01 7.022052523E-06 3.024004816E-01
4.200000000E+00 9.999516415E-01 6.341845715E-06 2.952004701E-01
4.300000000E+00 9.999539359E-01 5.834159348E-06 2.883353429E-01
4.400000000E+00 9.999560291E-01 5.501760343E-06 2.817822670E-01
4.500000000E+00 9.999580886E-01 4.971170020E-06 2.755204388E-01
4.600000000E+00 9.999599604E-01 4.599425482E-06 2.695308640E-01
4.700000000E+00 9.999616675E-01 4.357010739E-06 2.637961648E-01
4.800000000E+00 9.999633720E-01 3.961621224E-06 2.583004114E-01
4.900000000E+00 9.999649192E-01 3.684222363E-06 2.530289744E-01
5.000000000E+00 9.999663420E-01 3.479981872E-06 2.479683949E-01
5.100000000E+00 9.999676490E-01 3.344849934E-06 2.431062695E-01
5.200000000E+00 9.999690610E-01 2.982010028E-06 2.384311490E-01
5.300000000E+00 9.999702806E-01 2.787842267E-06 2.339324480E-01
5.400000000E+00 9.999713711E-01 2.685544900E-06 2.296003657E-01
5.500000000E+00 9.999725681E-01 2.441442156E-06 2.254258136E-01
5.600000000E+00 9.999736131E-01 2.289072458E-06 2.214003526E-01
5.700000000E+00 9.999745735E-01 2.171498693E-06 2.175161359E-01
5.800000000E+00 9.999754427E-01 2.097264939E-06 2.137658577E-01
5.900000000E+00 9.999764876E-01 1.902755530E-06 2.101427076E-01
6.000000000E+00 9.999773488E-01 1.792440266E-06 2.066403291E-01
6.100000000E+00 9.999781257E-01 1.711357367E-06 2.032527827E-01
6.200000000E+00 9.999788256E-01 1.656597493E-06 1.999745120E-01
6.300000000E+00 9.999798023E-01 1.509592676E-06 1.968003134E-01
6.400000000E+00 9.999805425E-01 1.427900331E-06 1.937253085E-01
6.500000000E+00 9.999812093E-01 1.362027200E-06 1.907449192E-01
6.600000000E+00 9.999817744E-01 1.321066327E-06 1.878548446E-01
6.700000000E+00 9.999829083E-01 1.213781904E-06 1.850510410E-01
6.800000000E+00 9.999836433E-01 1.151268733E-06 1.823297021E-01
6.900000000E+00 9.999846400E-01 1.092526207E-06 1.796872427E-01
7.000000000E+00 9.999858506E-01 2.479067312E-06 1.771202821E-01
7.100000000E+00 9.999852226E-01 2.902378127E-06 1.746256302E-01
7.200000000E+00 9.999854914E-01 2.807102734E-06 1.722002742E-01
7.300000000E+00 9.999855874E-01 2.589613925E-06 1.698413664E-01
7.400000000E+00 9.999858314E-01 2.452632574E-06 1.675462128E-01
7.500000000E+00 9.999862269E-01 2.345784251E-06 1.653122633E-01
7.600000000E+00 9.999871317E-01 2.213512555E-06 1.631371019E-01
7.700000000E+00 9.999871403E-01 2.968278977E-06 1.610184383E-01
7.800000000E+00 9.999870432E-01 2.813470830E-06 1.589540993E-01
7.900000000E+00 9.999871980E-01 2.659185341E-06 1.569420221E-01
8.000000000E+00 9.999875349E-01 2.533496583E-06 1.549802468E-01
8.100000000E+00 9.999877638E-01 2.806921756E-06 1.530669104E-01
8.200000000E+00 9.999878151E-01 2.684216837E-06 1.512002408E-01
8.300000000E+00 9.999880830E-01 2.614584317E-06 1.493785512E-01
8.400000000E+00 9.999881568E-01 2.468812653E-06 1.476002351E-01
8.500000000E+00 9.999883859E-01 2.391780491E-06 1.458637617E-01
8.600000000E+00 9.999886545E-01 2.336481077E-06 1.441676715E-01
8.700000000E+00 9.999889138E-01 2.283077559E-06 1.425105718E-01
8.800000000E+00 9.999889537E-01 2.097203480E-06 1.408911335E-01
8.900000000E+00 9.999891453E-01 2.015168760E-06 1.393080870E-01
9.000000000E+00 9.999893324E-01 1.937006256E-06 1.377602194E-01
9.100000000E+00 9.999895503E-01 1.884888188E-06 1.362463708E-01
9.200000000E+00 9.999897762E-01 1.844135053E-06 1.347654320E-01
9.300000000E+00 9.999899949E-01 1.804689454E-06 1.333163414E-01
9.400000000E+00 9.999901001E-01 1.654145880E-06 1.318980824E-01
9.500000000E+00 9.999902806E-01 1.591233521E-06 1.305096815E-01
9.600000000E+00 9.999904564E-01 1.531146669E-06 1.291502057E-01
9.700000000E+00 9.999906383E-01 1.485086643E-06 1.278187603E-01
9.800000000E+00 9.999908283E-01 1.454933385E-06 1.265144872E-01
9.900000000E+00 9.999910127E-01 1.425689238E-06 1.252365631E-01
1.000000000E+01 9.999911383E-01 1.319256939E-06 1.239841975E-01
1.010000000E+01 9.999912983E-01 1.271989444E-06 1.227566311E-01
1.020000000E+01 9.999914542E-01 1.226721861E-06 1.215531348E-01
1.030000000E+01 9.999916059E-01 1.183353307E-06 1.203730072E-01
1.040000000E+01 9.999917635E-01 1.156243891E-06 1.192155745E-01
1.050000000E+01 9.999919196E-01 1.134325073E-06 1.180801881E-01
1.060000000E+01 9.999920714E-01 1.113023668E-06 1.169662240E-01
1.070000000E+01 9.999921869E-01 1.028868363E-06 1.158730817E-01
1.080000000E+01 9.999923229E-01 9.940955146E-07 1.148001828E-01
1.090000000E+01 9.999924554E-01 9.607044414E-07 1.137469701E-01
1.100000000E+01 9.999925846E-01 9.286297333E-07 1.127129068E-01
1.110000000E+01 9.999927154E-01 9.076085509E-07 1.116974752E-01
1.120000000E+01 9.999928449E-01 8.914736094E-07 1.107001763E-01
1.130000000E+01 9.999929709E-01 8.757651309E-07 1.097205287E-01
1.140000000E+01 9.999930937E-01 8.604682176E-07 1.087580679E-01
1.150000000E+01 9.999931925E-01 7.895613967E-07 1.078123456E-01
1.160000000E+01 9.999933052E-01 7.648551834E-07 1.068829288E-01
1.170000000E+01 9.999934152E-01 7.410620440E-07 1.059693995E-01
1.180000000E+01 9.999935226E-01 7.184738742E-07 1.050713538E-01
1.190000000E+01 9.999936310E-01 7.064494191E-07 1.041884012E-01
1.200000000E+01 9.999937367E-01 6.947243211E-07 1.033201645E-01
1.210000000E+01 9.999938398E-01 6.832887251E-07 1.024662789E-01
1.220000000E+01 9.999939306E-01 6.359973979E-07 1.016263914E-01
1.230000000E+01 9.999940266E-01 6.172419682E-07 1.008001605E-01
1.240000000E+01 9.999941203E-01 5.991405838E-07 9.998725601E-02
1.250000000E+01 9.999942118E-01 5.816660086E-07 9.918735797E-02
1.260000000E+01 9.999943013E-01 5.647923339E-07 9.840015671E-02
1.270000000E+01 9.999943905E-01 5.553554825E-07 9.762535233E-02
1.280000000E+01 9.999944778E-01 5.467119493E-07 9.686265426E-02
1.290000000E+01 9.999945631E-01 5.382686483E-07 9.611178098E-02
1.300000000E+01 9.999946464E-01 5.300194424E-07 9.537245958E-02
1.310000000E+01 9.999947217E-01 4.903651959E-07 9.464442554E-02
1.320000000E+01 9.999948002E-01 4.769264694E-07 9.392742232E-02
1.330000000E+01 9.999948770E-01 4.639243760E-07 9.322120110E-02
1.340000000E+01 9.999949521E-01 4.513419563E-07 9.252552049E-02
1.350000000E+01 9.999950258E-01 4.404498189E-07 9.184014627E-02
1.360000000E+01 9.999950986E-01 4.339964289E-07 9.116485107E-02
1.370000000E+01 9.999951699E-01 4.276838377E-07 9.049941420E-02
1.380000000E+01 9.999952397E-01 4.215079788E-07 8.984362135E-02
1.390000000E+01 9.999953079E-01 4.154649319E-07 8.919726436E-02
1.400000000E+01 9.999953686E-01 3.846492873E-07 8.856014104E-02
1.410000000E+01 9.999954330E-01 3.747300769E-07 8.793205493E-02
1.420000000E+01 9.999954960E-01 3.651133932E-07 8.731281511E-02
1.430000000E+01 9.999955578E-01 3.557882100E-07 8.670223598E-02
1.440000000E+01 9.999956182E-01 3.467439714E-07 8.610013712E-02
1.450000000E+01 9.999956784E-01 3.417069226E-07 8.550634307E-02
1.460000000E+01 9.999957374E-01 3.370420364E-07 8.492068319E-02
1.470000000E+01 9.999957952E-01 3.324720277E-07 8.434299147E-02
1.480000000E+01 9.999958518E-01 3.279943411E-07 8.377310639E-02
1.490000000E+01 9.999959052E-01 3.059402944E-07 8.321087078E-02
1.500000000E+01 9.999959592E-01 2.984807013E-07 8.265613164E-02
1.510000000E+01 9.999960122E-01 2.912355833E-07 8.210874004E-02
1.520000000E+01 9.999960641E-01 2.841975754E-07 8.156855096E-02
1.530000000E+01 9.999961150E-01 2.773596085E-07 8.103542318E-02
1.540000000E+01 9.999961649E-01 2.707148964E-07 8.050921913E-02
1.550000000E+01 9.999962142E-01 2.671802452E-07 7.998980481E-02
1.560000000E+01 9.999962626E-01 2.637658362E-07 7.947704965E-02
1.570000000E+01 9.999963101E-01 2.604164628E-07 7.897082641E-02
1.580000000E+01 9.999963566E-01 2.571304835E-07 7.847101105E-02
1.590000000E+01 9.999964023E-01 2.539063087E-07 7.797748268E-02
1.600000000E+01 9.999964464E-01 2.349789324E-07 7.749012341E-02
1.610000000E+01 9.999964903E-01 2.295795071E-07 7.700881830E-02
1.620000000E+01 9.999965334E-01 2.243254385E-07 7.653345522E-02
1.630000000E+01 9.999965756E-01 2.192120598E-07 7.606392482E-02
1.640000000E+01 9.999966172E-01 2.142348800E-07 7.560012040E-02
1.650000000E+01 9.999966580E-01 2.102172221E-07 7.514193785E-02
1.660000000E+01 9.999966981E-01 2.076921132E-07 7.468927558E-02
1.670000000E+01 9.999967375E-01 2.052122296E-07 7.424203441E-02
1.680000000E+01 9.999967763E-01 2.027764977E-07 7.380011753E-02
1.690000000E+01 9.999968143E-01 2.003838756E-07 7.336343045E-02
1.700000000E+01 9.999968517E-01 1.980333519E-07 7.293188086E-02
1.710000000E+01 9.999968895E-01 1.833551723E-07 7.250537863E-02
1.720000000E+01 9.999969258E-01 1.793918242E-07 7.208383573E-02
1.730000000E+01 9.999969614E-01 1.755285947E-07 7.166716616E-02
1.740000000E+01 9.999969964E-01 1.717624689E-07 7.125528590E-02
1.750000000E+01 9.999970308E-01 1.680905382E-07 7.084811283E-02
1.760000000E+01 9.999970646E-01 1.645284522E-07 7.044556674E-02
1.770000000E+01 9.999970976E-01 1.626746253E-07 7.004756919E-02
1.780000000E+01 9.999971301E-01 1.608519548E-07 6.965404352E-02
1.790000000E+01 9.999971621E-01 1.590597465E-07 6.926491478E-02
1.800000000E+01 9.999971936E-01 1.572973252E-07 6.888010970E-02
1.810000000E+01 9.999972245E-01 1.555640346E-07 6.849955661E-02
1.820000000E+01 9.999972563E-01 1.453057182E-07 6.812318542E-02
1.830000000E+01 9.999972864E-01 1.423684878E-07 6.775092757E-02
1.840000000E+01 9.999973160E-01 1.395009058E-07 6.738271601E-02
1.850000000E+01 9.999973452E-01 1.367010009E-07 6.701848511E-02
1.860000000E+01 9.999973739E-01 1.339668671E-07 6.665817068E-02
1.870000000E+01 9.999974021E-01 1.312966615E-07 6.630170987E-02
1.880000000E+01 9.999974298E-01 1.286886014E-07 6.594904120E-02
1.890000000E+01 9.999974570E-01 1.271632480E-07 6.560010448E-02
1.900000000E+01 9.999974837E-01 1.258282100E-07 6.525484077E-02
1.910000000E+01 9.999975100E-01 1.245140863E-07 6.491319239E-02
1.920000000E+01 9.999975358E-01 1.232204422E-07 6.457510284E-02
1.930000000E+01 9.999975613E-01 1.219468545E-07 6.424051682E-02
1.940000000E+01 9.999975864E-01 1.206929106E-07 6.390938013E-02
1.950000000E+01 9.999976126E-01 1.124255113E-07 6.358163972E-02
1.960000000E+01 9.999976372E-01 1.103072056E-07 6.325724360E-02
1.970000000E+01 9.999976613E-01 1.082357968E-07 6.293614084E-02
1.980000000E+01 9.999976851E-01 1.062100447E-07 6.261828154E-02
1.990000000E+01 9.999977085E-01 1.042287475E-07 6.230361681E-02
2.000000000E+01 9.999977315E-01 1.022907408E-07 6.199209873E-02
2.010000000E+01 9.999977542E-01 1.003948955E-07 6.168368033E-02
2.020000000E+01 9.999977764E-01 9.930813678E-08 6.137831557E-02
2.030000000E+01 9.999977983E-01 9.833214136E-08 6.107595934E-02
2.040000000E+01 9.999978198E-01 9.737046360E-08 6.077656738E-02
2.050000000E+01 9.999978411E-01 9.642282482E-08 6.048009632E-02
2.060000000E+01 9.999978620E-01 9.548895309E-08 6.018650362E-02
2.070000000E+01 9.999978826E-01 9.456858301E-08 5.989574756E-02
2.080000000E+01 9.999979043E-01 8.851216780E-08 5.960778724E-02
2.090000000E+01 9.999979245E-01 8.695493031E-08 5.932258252E-02
2.100000000E+01 9.999979444E-01 8.542998866E-08 5.904009403E-02
2.110000000E+01 9.999979641E-01 8.393654191E-08 5.876028316E-02
2.120000000E+01 9.999979834E-01 8.247381239E-08 5.848311201E-02
2.130000000E+01 9.999980025E-01 8.104104497E-08 5.820854341E-02
2.140000000E+01 9.999980213E-01 7.963750631E-08 5.793654087E-02
2.150000000E+01 9.999980399E-01 7.826940195E-08 5.766706859E-02
2.160000000E+01 9.999980580E-01 7.754636285E-08 5.740009142E-02
2.170000000E+01 9.999980758E-01 7.683329663E-08 5.713557487E-02
2.180000000E+01 9.999980934E-01 7.613002073E-08 5.687348507E-02
2.190000000E+01 9.999981108E-01 7.543635673E-08 5.661378879E-02
2.200000000E+01 9.999981279E-01 7.475213027E-08 5.635645339E-02
2.210000000E+01 9.999981448E-01 7.407717093E-08 5.610144681E-02
2.220000000E+01 9.999981615E-01 7.341131209E-08 5.584873759E-02
2.230000000E+01 9.999981794E-01 6.844618943E-08 5.559829482E-02
2.240000000E+01 9.999981958E-01 6.732486848E-08 5.535008815E-02
2.250000000E+01 9.999982120E-01 6.622524065E-08 5.510408776E-02
2.260000000E+01 9.999982279E-01 6.514680369E-08 5.486026436E-02
2.270000000E+01 9.999982437E-01 6.408906904E-08 5.461858919E-02
2.280000000E+01 9.999982592E-01 6.305156133E-08 5.437903397E-02
2.290000000E+01 9.999982745E-01 6.203381801E-08 5.414157094E-02
2.300000000E+01 9.999982896E-01 6.112106624E-08 5.390617281E-02
2.310000000E+01 9.999983044E-01 6.059302494E-08 5.367281275E-02
2.320000000E+01 9.999983190E-01 6.007179704E-08 5.344146442E-02
2.330000000E+01 9.999983334E-01 5.955726582E-08 5.321210191E-02
2.340000000E+01 9.999983476E-01 5.904931704E-08 5.298469977E-02
2.350000000E+01 9.999983617E-01 5.854783891E-08 5.275923296E-02
2.360000000E+01 9.999983755E-01 5.805272199E-08 5.253567689E-02
2.370000000E+01 9.999983892E-01 5.756385914E-08 5.231400737E-02
2.380000000E+01 9.999984040E-01 5.387627022E-08 5.209420061E-02
2.390000000E+01 9.999984174E-01 5.305309029E-08 5.187623325E-02
2.400000000E+01 9.999984307E-01 5.224481550E-08 5.166008227E-02
2.410000000E+01 9.999984439E-01 5.145112250E-08 5.144572509E-02
2.420000000E+01 9.999984569E-01 5.067169616E-08 5.123313945E-02
2.430000000E+01 9.999984697E-01 4.990622937E-08 5.102230348E-02
2.440000000E+01 9.999984823E-01 4.915442276E-08 5.081319568E-02
2.450000000E+01 9.999984948E-01 4.841598451E-08 5.060579488E-02
2.460000000E+01 9.999985071E-01 4.778748771E-08 5.040008027E-02
2.470000000E+01 9.999985192E-01 4.740132778E-08 5.019603136E-02
2.480000000E+01 9.999985311E-01 4.701982971E-08 4.999362801E-02
2.490000000E+01 9.999985429E-01 4.664291876E-08 4.979285038E-02
2.500000000E+01 9.999985545E-01 4.627052170E-08 4.959367898E-02
2.510000000E+01 9.999985660E-01 4.590256673E-08 4.939609460E-02
2.520000000E+01 9.999985774E-01 4.553898347E-08 4.920007836E-02
2.530000000E+01 9.999985886E-01 4.517970295E-08 4.900561164E-02
2.540000000E+01 9.999986007E-01 4.244212629E-08 4.881267616E-02
2.550000000E+01 9.999986118E-01 4.183521192E-08 4.862125391E-02
2.560000000E+01 9.999986228E-01 4.123859610E-08 4.843132713E-02
2.570000000E+01 9.999986336E-01 4.065206934E-08 4.824287839E-02
2.580000000E+01 9.999986443E-01 4.007542714E-08 4.805589049E-02
2.590000000E+01 9.999986548E-01 3.950846989E-08 4.787034651E-02
2.600000000E+01 9.999986653E-01 3.895100270E-08 4.768622979E-02
2.610000000E+01 9.999986756E-01 3.840283529E-08 4.750352393E-02
2.620000000E+01 9.999986858E-01 3.786378187E-08 4.732221277E-02
2.630000000E+01 9.999986958E-01 3.742501549E-08 4.714228040E-02
2.640000000E+01 9.999987057E-01 3.714202962E-08 4.696371116E-02
2.650000000E+01 9.999987154E-01 3.686224131E-08 4.678648961E-02
2.660000000E+01 9.999987251E-01 3.658560258E-08 4.661060055E-02
2.670000000E+01 9.999987346E-01 3.631206632E-08 4.643602901E-02
2.680000000E+01 9.999987440E-01 3.604158632E-08 4.626276025E-02
2.690000000E+01 9.999987534E-01 3.577411722E-08 4.609077972E-02
2.700000000E+01 9.999987626E-01 3.550961449E-08 4.592007313E-02
2.710000000E+01 9.999987717E-01 3.524803442E-08 4.575062637E-02
2.720000000E+01 9.999987817E-01 3.291783757E-08 4.558242554E-02
2.730000000E+01 9.999987907E-01 3.246616753E-08 4.541545694E-02
2.740000000E+01 9.999987996E-01 3.202173086E-08 4.524970710E-02
2.750000000E+01 9.999988084E-01 3.158438931E-08 4.508516271E-02
2.760000000E+01 9.999988171E-01 3.115400772E-08 4.492181067E-02
2.770000000E+01 9.999988257E-01 3.073045398E-08 4.475963807E-02
2.780000000E+01 9.999988342E-01 3.031359887E-08 4.459863218E-02
2.790000000E+01 9.999988427E-01 2.990331607E-08 4.443878045E-02
2.800000000E+01 9.999988510E-01 2.949948206E-08 4.428007052E-02
2.810000000E+01 9.999988592E-01 2.914670749E-08 4.412249020E-02
2.820000000E+01 9.999988673E-01 2.894035977E-08 4.396602747E-02
2.830000000E+01 9.999988753E-01 2.873619561E-08 4.381067048E-02
2.840000000E+01 9.999988832E-01 2.853418432E-08 4.365640756E-02
2.850000000E+01 9.999988910E-01 2.833429572E-08 4.350322718E-02
2.860000000E+01 9.999988988E-01 2.813650020E-08 4.335111799E-02
2.870000000E+01 9.999989064E-01 2.794076862E-08 4.320006880E-02
2.880000000E+01 9.999989140E-01 2.774707236E-08 4.305006856E-02
2.890000000E+01 9.999989215E-01 2.755538332E-08 4.290110639E-02
2.900000000E+01 9.999989289E-01 2.736567384E-08 4.275317154E-02
2.910000000E+01 9.999989373E-01 2.551356500E-08 4.260625342E-02
2.920000000E+01 9.999989447E-01 2.518388377E-08 4.246034160E-02
2.930000000E+01 9.999989519E-01 2.485915361E-08 4.231542575E-02
2.940000000E+01 9.999989591E-01 2.453928588E-08 4.217149573E-02
2.950000000E+01 9.999989663E-01 2.422419378E-08 4.202854151E-02
2.960000000E+01 9.999989733E-01 2.391379234E-08 4.188655320E-02
2.970000000E+01 9.999989803E-01 2.360799836E-08 4.174552103E-02
2.980000000E+01 9.999989873E-01 2.330673036E-08 4.160543539E-02
2.990000000E+01 9.999989941E-01 2.300990857E-08 4.146628678E-02
3.000000000E+01 9.999990009E-01 2.271745485E-08 4.132806582E-02
3.010000000E+01 9.999990075E-01 2.254867167E-08 4.119076328E-02
3.020000000E+01 9.999990141E-01 2.239958995E-08 4.105437002E-02
3.030000000E+01 9.999990206E-01 2.225198185E-08 4.091887705E-02
3.040000000E+01 9.999990270E-01 2.210582801E-08 4.078427548E-02
3.050000000E+01 9.999990334E-01 2.196110940E-08 4.065055654E-02
3.060000000E+01 9.999990397E-01 2.181780727E-08 4.051771159E-02
3.070000000E+01 9.999990459E-01 2.167590321E-08 4.038573207E-02
3.080000000E+01 9.999990521E-01 2.153537909E-08 4.025460956E-02
3.090000000E+01 9.999990582E-01 2.139621707E-08 4.012433575E-02
3.100000000E+01 9.999990643E-01 2.125839960E-08 3.999490241E-02
3.110000000E+01 9.999990713E-01 1.982255525E-08 3.986630143E-02
3.120000000E+01 9.999990773E-01 1.958142602E-08 3.973852483E-02
3.130000000E+01 9.999990833E-01 1.934369420E-08 3.961156468E-02
3.140000000E+01 9.999990892E-01 1.910930276E-08 3.948541320E-02
3.150000000E+01 9.999990951E-01 1.887819578E-08 3.936006269E-02
3.160000000E+01 9.999991009E-01 1.865031845E-08 3.923550552E-02
3.170000000E+01 9.999991066E-01 1.842561705E-08 3.911173421E-02
3.180000000E+01 9.999991123E-01 1.820403888E-08 3.898874134E-02
3.190000000E+01 9.999991179E-01 1.798553227E-08 3.886651958E-02
3.200000000E+01 9.999991235E-01 1.777004656E-08 3.874506171E-02
3.210000000E+01 9.999991290E-01 1.757074448E-08 3.862436058E-02
3.220000000E+01 9.999991344E-01 1.746177889E-08 3.850440915E-02
3.230000000E+01 9.999991398E-01 1.735382379E-08 3.838520045E-02
3.240000000E+01 9.999991451E-01 1.724686674E-08 3.826672761E-02
3.250000000E+01 9.999991503E-01 1.714089545E-08 3.814898383E-02
3.260000000E+01 9.999991555E-01 1.703589787E-08 3.803196241E-02
3.270000000E+01 9.999991607E-01 1.693186210E-08 3.791565672E-02
