# 08/03/2022 
# Density retrieved from www.chemicool.com/densities.html 
# Includes the real (n) and complex (k) part of the  refractive index. 
# Element, Ge  (Z = 32) 
# Nominal density, g cm-3 =  5.323 
#    E [keV]      n       k    Wavelength [nm] 
2.000000000E+00 9.997674280E-01 6.901259847E-05 6.199209873E-01
2.100000000E+00 9.997866568E-01 5.814250861E-05 5.904009403E-01
2.200000000E+00 9.998039767E-01 4.949945274E-05 5.635645339E-01
2.300000000E+00 9.998194298E-01 4.234149255E-05 5.390617281E-01
2.400000000E+00 9.998332662E-01 3.643552454E-05 5.166008227E-01
2.500000000E+00 9.998449436E-01 3.152591223E-05 4.959367898E-01
2.600000000E+00 9.998561438E-01 2.738459395E-05 4.768622979E-01
2.700000000E+00 9.998662962E-01 2.397299185E-05 4.592007313E-01
2.800000000E+00 9.998754391E-01 2.100498136E-05 4.428007052E-01
2.900000000E+00 9.998835567E-01 1.851465065E-05 4.275317154E-01
3.000000000E+00 9.998910518E-01 1.644365239E-05 4.132806582E-01
3.100000000E+00 9.998978873E-01 1.449028961E-05 3.999490241E-01
3.200000000E+00 9.999041472E-01 1.290074760E-05 3.874506171E-01
3.300000000E+00 9.999098749E-01 1.146058554E-05 3.757096893E-01
3.400000000E+00 9.999151208E-01 1.029439413E-05 3.646594043E-01
3.500000000E+00 9.999199385E-01 9.220965736E-06 3.542405642E-01
3.600000000E+00 9.999243704E-01 8.278886675E-06 3.444005485E-01
3.700000000E+00 9.999284470E-01 7.502488108E-06 3.350924256E-01
3.800000000E+00 9.999322174E-01 6.767833636E-06 3.262742038E-01
3.900000000E+00 9.999356997E-01 6.144104459E-06 3.179081986E-01
4.000000000E+00 9.999389240E-01 5.595970940E-06 3.099604936E-01
4.100000000E+00 9.999419168E-01 5.104114295E-06 3.024004816E-01
4.200000000E+00 9.999446979E-01 4.666971486E-06 2.952004701E-01
4.300000000E+00 9.999472861E-01 4.278129361E-06 2.883353429E-01
4.400000000E+00 9.999496974E-01 3.935983972E-06 2.817822670E-01
4.500000000E+00 9.999519522E-01 3.616853848E-06 2.755204388E-01
4.600000000E+00 9.999540576E-01 3.338440594E-06 2.695308640E-01
4.700000000E+00 9.999560272E-01 3.092456531E-06 2.637961648E-01
4.800000000E+00 9.999578799E-01 2.852797961E-06 2.583004114E-01
4.900000000E+00 9.999596158E-01 2.644821364E-06 2.530289744E-01
5.000000000E+00 9.999612474E-01 2.456016126E-06 2.479683949E-01
5.100000000E+00 9.999627829E-01 2.284151030E-06 2.431062695E-01
5.200000000E+00 9.999642298E-01 2.126863384E-06 2.384311490E-01
5.300000000E+00 9.999655904E-01 1.991981563E-06 2.339324480E-01
5.400000000E+00 9.999668808E-01 1.854155541E-06 2.296003657E-01
5.500000000E+00 9.999681009E-01 1.727735631E-06 2.254258136E-01
5.600000000E+00 9.999692548E-01 1.614470860E-06 2.214003526E-01
5.700000000E+00 9.999703473E-01 1.512314395E-06 2.175161359E-01
5.800000000E+00 9.999713846E-01 1.416103791E-06 2.137658577E-01
5.900000000E+00 9.999723682E-01 1.329142289E-06 2.101427076E-01
6.000000000E+00 9.999733008E-01 1.252048311E-06 2.066403291E-01
6.100000000E+00 9.999741915E-01 1.174056545E-06 2.032527827E-01
6.200000000E+00 9.999750371E-01 1.104089687E-06 1.999745120E-01
6.300000000E+00 9.999758417E-01 1.040298128E-06 1.968003134E-01
6.400000000E+00 9.999766086E-01 9.814331962E-07 1.937253085E-01
6.500000000E+00 9.999773405E-01 9.263909982E-07 1.907449192E-01
6.600000000E+00 9.999780394E-01 8.749077267E-07 1.878548446E-01
6.700000000E+00 9.999786900E-01 8.489859785E-07 1.850510410E-01
6.800000000E+00 9.999793421E-01 7.786008248E-07 1.823297021E-01
6.900000000E+00 9.999799494E-01 7.365949926E-07 1.796872427E-01
7.000000000E+00 9.999805200E-01 7.129087438E-07 1.771202821E-01
7.100000000E+00 9.999810649E-01 6.929682295E-07 1.746256302E-01
7.200000000E+00 9.999816334E-01 6.280952988E-07 1.722002742E-01
7.300000000E+00 9.999821481E-01 5.962156621E-07 1.698413664E-01
7.400000000E+00 9.999826405E-01 5.671454914E-07 1.675462128E-01
7.500000000E+00 9.999831003E-01 5.521224375E-07 1.653122633E-01
7.600000000E+00 9.999835421E-01 5.376884887E-07 1.631371019E-01
7.700000000E+00 9.999840126E-01 4.881284051E-07 1.610184383E-01
7.800000000E+00 9.999844337E-01 4.649482025E-07 1.589540993E-01
7.900000000E+00 9.999848383E-01 4.430429917E-07 1.569420221E-01
8.000000000E+00 9.999852153E-01 4.318282278E-07 1.549802468E-01
8.100000000E+00 9.999855781E-01 4.212316199E-07 1.530669104E-01
8.200000000E+00 9.999859707E-01 3.856856497E-07 1.512002408E-01
8.300000000E+00 9.999863201E-01 3.685447734E-07 1.493785512E-01
8.400000000E+00 9.999866566E-01 3.522896680E-07 1.476002351E-01
8.500000000E+00 9.999869744E-01 3.407389676E-07 1.458637617E-01
8.600000000E+00 9.999872755E-01 3.328608763E-07 1.441676715E-01
8.700000000E+00 9.999875664E-01 3.252528789E-07 1.425105718E-01
8.800000000E+00 9.999878987E-01 2.958144624E-07 1.408911335E-01
8.900000000E+00 9.999881826E-01 2.834188409E-07 1.393080870E-01
9.000000000E+00 9.999884566E-01 2.716237591E-07 1.377602194E-01
9.100000000E+00 9.999887127E-01 2.640779935E-07 1.362463708E-01
9.200000000E+00 9.999889567E-01 2.583683677E-07 1.347654320E-01
9.300000000E+00 9.999891929E-01 2.528419313E-07 1.333163414E-01
9.400000000E+00 9.999894853E-01 2.290581667E-07 1.318980824E-01
9.500000000E+00 9.999897215E-01 2.196228947E-07 1.305096815E-01
9.600000000E+00 9.999899499E-01 2.106236327E-07 1.291502057E-01
9.700000000E+00 9.999901643E-01 2.038992592E-07 1.278187603E-01
9.800000000E+00 9.999903640E-01 1.997592805E-07 1.265144872E-01
9.900000000E+00 9.999905577E-01 1.957441210E-07 1.252365631E-01
1.000000000E+01 9.999908328E-01 1.794091691E-07 1.239841975E-01
1.010000000E+01 9.999910372E-01 1.724840933E-07 1.227566311E-01
1.020000000E+01 9.999912349E-01 1.658599431E-07 1.215531348E-01
1.030000000E+01 9.999914263E-01 1.595213289E-07 1.203730072E-01
1.040000000E+01 9.999915953E-01 1.557573005E-07 1.192155745E-01
1.050000000E+01 9.999917547E-01 1.528046224E-07 1.180801881E-01
1.060000000E+01 9.999920718E-01 1.425559497E-07 1.169662240E-01
1.070000000E+01 9.999922748E-01 1.373776476E-07 1.158730817E-01
1.080000000E+01 9.999924707E-01 1.324117213E-07 1.148001828E-01
1.090000000E+01 9.999926523E-01 1.279886882E-07 1.137469701E-01
1.100000000E+01 9.999930146E-01 1.230616845E-07 1.127129068E-01
1.110000000E+01 9.999936821E-01 1.189332061E-07 1.116974752E-01
1.120000000E+01 9.999933721E-01 9.289542583E-07 1.107001763E-01
1.130000000E+01 9.999931655E-01 8.884107969E-07 1.097205287E-01
1.140000000E+01 9.999932341E-01 8.690958509E-07 1.087580679E-01
1.150000000E+01 9.999933513E-01 8.540468566E-07 1.078123456E-01
1.160000000E+01 9.999932910E-01 8.001838938E-07 1.068829288E-01
1.170000000E+01 9.999933454E-01 7.731130168E-07 1.059693995E-01
1.180000000E+01 9.999934017E-01 7.474797808E-07 1.050713538E-01
1.190000000E+01 9.999935121E-01 7.349698798E-07 1.041884012E-01
1.200000000E+01 9.999936198E-01 7.227714213E-07 1.033201645E-01
1.210000000E+01 9.999937248E-01 7.108741525E-07 1.024662789E-01
1.220000000E+01 9.999937386E-01 6.607046524E-07 1.016263914E-01
1.230000000E+01 9.999938193E-01 6.409809868E-07 1.008001605E-01
1.240000000E+01 9.999938985E-01 6.219482762E-07 9.998725601E-02
1.250000000E+01 9.999939762E-01 6.035776791E-07 9.918735797E-02
1.260000000E+01 9.999940526E-01 5.858417611E-07 9.840015671E-02
1.270000000E+01 9.999941445E-01 5.760359279E-07 9.762535233E-02
1.280000000E+01 9.999942356E-01 5.670705250E-07 9.686265426E-02
1.290000000E+01 9.999943247E-01 5.583128106E-07 9.611178098E-02
1.300000000E+01 9.999944116E-01 5.497564190E-07 9.537245958E-02
1.310000000E+01 9.999944499E-01 5.099066824E-07 9.464442554E-02
1.320000000E+01 9.999945248E-01 4.961929988E-07 9.392742232E-02
1.330000000E+01 9.999945981E-01 4.829216810E-07 9.322120110E-02
1.340000000E+01 9.999946700E-01 4.700756120E-07 9.252552049E-02
1.350000000E+01 9.999947425E-01 4.589209846E-07 9.184014627E-02
1.360000000E+01 9.999948195E-01 4.521969585E-07 9.116485107E-02
1.370000000E+01 9.999948948E-01 4.456196358E-07 9.049941420E-02
1.380000000E+01 9.999949686E-01 4.391847797E-07 8.984362135E-02
1.390000000E+01 9.999950407E-01 4.328883052E-07 8.919726436E-02
1.400000000E+01 9.999950841E-01 4.027899093E-07 8.856014104E-02
1.410000000E+01 9.999951487E-01 3.927880548E-07 8.793205493E-02
1.420000000E+01 9.999952120E-01 3.830868346E-07 8.731281511E-02
1.430000000E+01 9.999952741E-01 3.736753757E-07 8.670223598E-02
1.440000000E+01 9.999953350E-01 3.645432668E-07 8.610013712E-02
1.450000000E+01 9.999953989E-01 3.592720567E-07 8.550634307E-02
1.460000000E+01 9.999954617E-01 3.543673762E-07 8.492068319E-02
1.470000000E+01 9.999955232E-01 3.495624504E-07 8.434299147E-02
1.480000000E+01 9.999955835E-01 3.448545924E-07 8.377310639E-02
1.490000000E+01 9.999956276E-01 3.219986912E-07 8.321087078E-02
1.500000000E+01 9.999956828E-01 3.142149822E-07 8.265613164E-02
1.510000000E+01 9.999957370E-01 3.066543443E-07 8.210874004E-02
1.520000000E+01 9.999957902E-01 2.993091302E-07 8.156855096E-02
1.530000000E+01 9.999958424E-01 2.921719998E-07 8.103542318E-02
1.540000000E+01 9.999958936E-01 2.852359060E-07 8.050921913E-02
1.550000000E+01 9.999959464E-01 2.815127680E-07 7.998980481E-02
1.560000000E+01 9.999959982E-01 2.779151977E-07 7.947704965E-02
1.570000000E+01 9.999960490E-01 2.743861516E-07 7.897082641E-02
1.580000000E+01 9.999960988E-01 2.709239005E-07 7.847101105E-02
1.590000000E+01 9.999961477E-01 2.675267692E-07 7.797748268E-02
1.600000000E+01 9.999961857E-01 2.478818682E-07 7.749012341E-02
1.610000000E+01 9.999962314E-01 2.422361425E-07 7.700881830E-02
1.620000000E+01 9.999962762E-01 2.367419078E-07 7.653345522E-02
1.630000000E+01 9.999963203E-01 2.313943087E-07 7.606392482E-02
1.640000000E+01 9.999963635E-01 2.261886723E-07 7.560012040E-02
1.650000000E+01 9.999964066E-01 2.219769084E-07 7.514193785E-02
1.660000000E+01 9.999964497E-01 2.193105433E-07 7.468927558E-02
1.670000000E+01 9.999964921E-01 2.166919335E-07 7.424203441E-02
1.680000000E+01 9.999965338E-01 2.141199452E-07 7.380011753E-02
1.690000000E+01 9.999965747E-01 2.115934783E-07 7.336343045E-02
1.700000000E+01 9.999966148E-01 2.091114648E-07 7.293188086E-02
1.710000000E+01 9.999966484E-01 1.937907965E-07 7.250537863E-02
1.720000000E+01 9.999966863E-01 1.896302008E-07 7.208383573E-02
1.730000000E+01 9.999967237E-01 1.855744452E-07 7.166716616E-02
1.740000000E+01 9.999967604E-01 1.816203767E-07 7.125528590E-02
1.750000000E+01 9.999967965E-01 1.777649535E-07 7.084811283E-02
1.760000000E+01 9.999968320E-01 1.740244621E-07 7.044556674E-02
1.770000000E+01 9.999968676E-01 1.720636388E-07 7.004756919E-02
1.780000000E+01 9.999969027E-01 1.701357701E-07 6.965404352E-02
1.790000000E+01 9.999969373E-01 1.682401217E-07 6.926491478E-02
1.800000000E+01 9.999969712E-01 1.663759796E-07 6.888010970E-02
1.810000000E+01 9.999970046E-01 1.645426495E-07 6.849955661E-02
1.820000000E+01 9.999970343E-01 1.536679354E-07 6.812318542E-02
1.830000000E+01 9.999970661E-01 1.505575944E-07 6.775092757E-02
1.840000000E+01 9.999970974E-01 1.475210422E-07 6.738271601E-02
1.850000000E+01 9.999971282E-01 1.445561897E-07 6.701848511E-02
1.860000000E+01 9.999971586E-01 1.416610173E-07 6.665817068E-02
1.870000000E+01 9.999971884E-01 1.388335718E-07 6.630170987E-02
1.880000000E+01 9.999972178E-01 1.360719644E-07 6.594904120E-02
1.890000000E+01 9.999972471E-01 1.344585629E-07 6.560010448E-02
1.900000000E+01 9.999972760E-01 1.330469342E-07 6.525484077E-02
1.910000000E+01 9.999973045E-01 1.316574196E-07 6.491319239E-02
1.920000000E+01 9.999973325E-01 1.302895596E-07 6.457510284E-02
1.930000000E+01 9.999973600E-01 1.289429065E-07 6.424051682E-02
1.940000000E+01 9.999973872E-01 1.276170242E-07 6.390938013E-02
1.950000000E+01 9.999974121E-01 1.187730954E-07 6.358163972E-02
1.960000000E+01 9.999974381E-01 1.165201446E-07 6.325724360E-02
1.970000000E+01 9.999974638E-01 1.143171943E-07 6.293614084E-02
1.980000000E+01 9.999974891E-01 1.121629207E-07 6.261828154E-02
1.990000000E+01 9.999975141E-01 1.100560409E-07 6.230361681E-02
2.000000000E+01 9.999975386E-01 1.079953116E-07 6.199209873E-02
2.010000000E+01 9.999975628E-01 1.059795279E-07 6.168368033E-02
2.020000000E+01 9.999975869E-01 1.048307665E-07 6.137831557E-02
2.030000000E+01 9.999976106E-01 1.038004949E-07 6.107595934E-02
2.040000000E+01 9.999976340E-01 1.027853373E-07 6.077656738E-02
2.050000000E+01 9.999976570E-01 1.017849993E-07 6.048009632E-02
2.060000000E+01 9.999976797E-01 1.007991940E-07 6.018650362E-02
2.070000000E+01 9.999977020E-01 9.982764115E-08 5.989574756E-02
2.080000000E+01 9.999977232E-01 9.332022964E-08 5.960778724E-02
2.090000000E+01 9.999977448E-01 9.166168737E-08 5.932258252E-02
2.100000000E+01 9.999977661E-01 9.003767055E-08 5.904009403E-02
2.110000000E+01 9.999977871E-01 8.844732129E-08 5.876028316E-02
2.120000000E+01 9.999978078E-01 8.688980665E-08 5.848311201E-02
2.130000000E+01 9.999978282E-01 8.536431786E-08 5.820854341E-02
2.140000000E+01 9.999978483E-01 8.387006949E-08 5.793654087E-02
2.150000000E+01 9.999978682E-01 8.241375468E-08 5.766706859E-02
2.160000000E+01 9.999978879E-01 8.165243078E-08 5.740009142E-02
2.170000000E+01 9.999979073E-01 8.090160781E-08 5.713557487E-02
2.180000000E+01 9.999979265E-01 8.016109356E-08 5.687348507E-02
2.190000000E+01 9.999979454E-01 7.943070016E-08 5.661378879E-02
2.200000000E+01 9.999979640E-01 7.871024401E-08 5.635645339E-02
2.210000000E+01 9.999979824E-01 7.799954567E-08 5.610144681E-02
2.220000000E+01 9.999980005E-01 7.729842972E-08 5.584873759E-02
2.230000000E+01 9.999980167E-01 7.188116020E-08 5.559829482E-02
2.240000000E+01 9.999980342E-01 7.067968041E-08 5.535008815E-02
2.250000000E+01 9.999980514E-01 6.950161651E-08 5.510408776E-02
2.260000000E+01 9.999980684E-01 6.834642431E-08 5.486026436E-02
2.270000000E+01 9.999980852E-01 6.721357444E-08 5.461858919E-02
2.280000000E+01 9.999981018E-01 6.610255190E-08 5.437903397E-02
2.290000000E+01 9.999981181E-01 6.501285557E-08 5.414157094E-02
2.300000000E+01 9.999981343E-01 6.403797524E-08 5.390617281E-02
2.310000000E+01 9.999981504E-01 6.348473398E-08 5.367281275E-02
2.320000000E+01 9.999981664E-01 6.293863128E-08 5.344146442E-02
2.330000000E+01 9.999981821E-01 6.239954484E-08 5.321210191E-02
2.340000000E+01 9.999981976E-01 6.186735499E-08 5.298469977E-02
2.350000000E+01 9.999982129E-01 6.134194459E-08 5.275923296E-02
2.360000000E+01 9.999982280E-01 6.082319897E-08 5.253567689E-02
2.370000000E+01 9.999982429E-01 6.031100589E-08 5.231400737E-02
2.380000000E+01 9.999982576E-01 5.623300311E-08 5.209420061E-02
2.390000000E+01 9.999982721E-01 5.534735397E-08 5.187623325E-02
2.400000000E+01 9.999982865E-01 5.447792074E-08 5.166008227E-02
2.410000000E+01 9.999983007E-01 5.362434957E-08 5.144572509E-02
2.420000000E+01 9.999983147E-01 5.278629569E-08 5.123313945E-02
2.430000000E+01 9.999983285E-01 5.196342308E-08 5.102230348E-02
2.440000000E+01 9.999983422E-01 5.115540427E-08 5.081319568E-02
2.450000000E+01 9.999983557E-01 5.036192003E-08 5.060579488E-02
2.460000000E+01 9.999983690E-01 4.969061964E-08 5.040008027E-02
2.470000000E+01 9.999983822E-01 4.928908093E-08 5.019603136E-02
2.480000000E+01 9.999983952E-01 4.889238973E-08 4.999362801E-02
2.490000000E+01 9.999984081E-01 4.850046835E-08 4.979285038E-02
2.500000000E+01 9.999984208E-01 4.811324061E-08 4.959367898E-02
2.510000000E+01 9.999984333E-01 4.773063187E-08 4.939609460E-02
2.520000000E+01 9.999984458E-01 4.735256894E-08 4.920007836E-02
2.530000000E+01 9.999984580E-01 4.697898012E-08 4.900561164E-02
2.540000000E+01 9.999984702E-01 4.395789342E-08 4.881267616E-02
2.550000000E+01 9.999984822E-01 4.330805765E-08 4.862125391E-02
2.560000000E+01 9.999984941E-01 4.266938424E-08 4.843132713E-02
2.570000000E+01 9.999985058E-01 4.204164468E-08 4.824287839E-02
2.580000000E+01 9.999985174E-01 4.142461595E-08 4.805589049E-02
2.590000000E+01 9.999985288E-01 4.081808034E-08 4.787034651E-02
2.600000000E+01 9.999985401E-01 4.022182535E-08 4.768622979E-02
2.610000000E+01 9.999985513E-01 3.963564349E-08 4.750352393E-02
2.620000000E+01 9.999985623E-01 3.905933220E-08 4.732221277E-02
2.630000000E+01 9.999985733E-01 3.859437677E-08 4.714228040E-02
2.640000000E+01 9.999985840E-01 3.830254888E-08 4.696371116E-02
2.650000000E+01 9.999985947E-01 3.801401847E-08 4.678648961E-02
2.660000000E+01 9.999986053E-01 3.772873604E-08 4.661060055E-02
2.670000000E+01 9.999986157E-01 3.744665302E-08 4.643602901E-02
2.680000000E+01 9.999986260E-01 3.716772175E-08 4.626276025E-02
2.690000000E+01 9.999986362E-01 3.689189545E-08 4.609077972E-02
2.700000000E+01 9.999986463E-01 3.661912822E-08 4.592007313E-02
2.710000000E+01 9.999986562E-01 3.634937497E-08 4.575062637E-02
2.720000000E+01 9.999986663E-01 3.383681435E-08 4.558242554E-02
2.730000000E+01 9.999986761E-01 3.336067597E-08 4.541545694E-02
2.740000000E+01 9.999986857E-01 3.289223163E-08 4.524970710E-02
2.750000000E+01 9.999986953E-01 3.243133360E-08 4.508516271E-02
2.760000000E+01 9.999987048E-01 3.197783747E-08 4.492181067E-02
2.770000000E+01 9.999987141E-01 3.153160205E-08 4.475963807E-02
2.780000000E+01 9.999987234E-01 3.109248932E-08 4.459863218E-02
2.790000000E+01 9.999987325E-01 3.066036431E-08 4.443878045E-02
2.800000000E+01 9.999987416E-01 3.023509507E-08 4.428007052E-02
2.810000000E+01 9.999987505E-01 2.986504739E-08 4.412249020E-02
2.820000000E+01 9.999987594E-01 2.965361410E-08 4.396602747E-02
2.830000000E+01 9.999987681E-01 2.944441818E-08 4.381067048E-02
2.840000000E+01 9.999987768E-01 2.923742818E-08 4.365640756E-02
2.850000000E+01 9.999987854E-01 2.903261320E-08 4.350322718E-02
2.860000000E+01 9.999987938E-01 2.882994287E-08 4.335111799E-02
2.870000000E+01 9.999988022E-01 2.862938736E-08 4.320006880E-02
2.880000000E+01 9.999988105E-01 2.843091733E-08 4.305006856E-02
2.890000000E+01 9.999988187E-01 2.823450398E-08 4.290110639E-02
2.900000000E+01 9.999988269E-01 2.804011899E-08 4.275317154E-02
2.910000000E+01 9.999988352E-01 2.605684767E-08 4.260625342E-02
2.920000000E+01 9.999988432E-01 2.571165008E-08 4.246034160E-02
2.930000000E+01 9.999988511E-01 2.537168238E-08 4.231542575E-02
2.940000000E+01 9.999988589E-01 2.503685051E-08 4.217149573E-02
2.950000000E+01 9.999988667E-01 2.470706238E-08 4.202854151E-02
2.960000000E+01 9.999988744E-01 2.438222783E-08 4.188655320E-02
2.970000000E+01 9.999988820E-01 2.406225861E-08 4.174552103E-02
2.980000000E+01 9.999988895E-01 2.374706828E-08 4.160543539E-02
2.990000000E+01 9.999988969E-01 2.343657222E-08 4.146628678E-02
3.000000000E+01 9.999989043E-01 2.313068754E-08 4.132806582E-02
3.010000000E+01 9.999989116E-01 2.295778806E-08 4.119076328E-02
3.020000000E+01 9.999989188E-01 2.280600145E-08 4.105437002E-02
3.030000000E+01 9.999989259E-01 2.265571520E-08 4.091887705E-02
3.040000000E+01 9.999989329E-01 2.250690959E-08 4.078427548E-02
3.050000000E+01 9.999989399E-01 2.235956524E-08 4.065055654E-02
3.060000000E+01 9.999989468E-01 2.221366308E-08 4.051771159E-02
3.070000000E+01 9.999989537E-01 2.206918436E-08 4.038573207E-02
3.080000000E+01 9.999989605E-01 2.192611060E-08 4.025460956E-02
3.090000000E+01 9.999989672E-01 2.178442367E-08 4.012433575E-02
3.100000000E+01 9.999989738E-01 2.164410569E-08 3.999490241E-02
3.110000000E+01 9.999989807E-01 2.012771014E-08 3.986630143E-02
3.120000000E+01 9.999989873E-01 1.987776204E-08 3.973852483E-02
3.130000000E+01 9.999989938E-01 1.963136122E-08 3.961156468E-02
3.140000000E+01 9.999990002E-01 1.938844792E-08 3.948541320E-02
3.150000000E+01 9.999990066E-01 1.914896356E-08 3.936006269E-02
3.160000000E+01 9.999990129E-01 1.891285070E-08 3.923550552E-02
3.170000000E+01 9.999990191E-01 1.868005302E-08 3.911173421E-02
3.180000000E+01 9.999990253E-01 1.845051533E-08 3.898874134E-02
3.190000000E+01 9.999990314E-01 1.822418349E-08 3.886651958E-02
3.200000000E+01 9.999990375E-01 1.800100441E-08 3.874506171E-02
3.210000000E+01 9.999990435E-01 1.779493237E-08 3.862436058E-02
3.220000000E+01 9.999990494E-01 1.768457647E-08 3.850440915E-02
3.230000000E+01 9.999990553E-01 1.757524396E-08 3.838520045E-02
3.240000000E+01 9.999990611E-01 1.746692222E-08 3.826672761E-02
3.250000000E+01 9.999990669E-01 1.735959883E-08 3.814898383E-02
3.260000000E+01 9.999990726E-01 1.725326157E-08 3.803196241E-02
3.270000000E+01 9.999990783E-01 1.714789839E-08 3.791565672E-02
