# 08/03/2022 
# Density retrieved from www.chemicool.com/densities.html 
# Includes the real (n) and complex (k) part of the  refractive index. 
# Element, H  (Z = 1) 
# Nominal density, g cm-3 =  8.99e-05 
#    E [keV]      n       k    Wavelength [nm] 
2.000000000E+00 9.999999907E-01 3.149726238E-13 6.199209873E-01
2.100000000E+00 9.999999916E-01 2.433293284E-13 5.904009403E-01
2.200000000E+00 9.999999923E-01 1.940622512E-13 5.635645339E-01
2.300000000E+00 9.999999930E-01 1.596456039E-13 5.390617281E-01
2.400000000E+00 9.999999936E-01 1.350442875E-13 5.166008227E-01
2.500000000E+00 9.999999941E-01 1.104081816E-13 4.959367898E-01
2.600000000E+00 9.999999945E-01 9.792800401E-14 4.768622979E-01
2.700000000E+00 9.999999949E-01 7.850927593E-14 4.592007313E-01
2.800000000E+00 9.999999953E-01 7.184166176E-14 4.428007052E-01
2.900000000E+00 9.999999956E-01 5.722151995E-14 4.275317154E-01
3.000000000E+00 9.999999959E-01 5.323857624E-14 4.132806582E-01
3.100000000E+00 9.999999961E-01 4.257942549E-14 3.999490241E-01
3.200000000E+00 9.999999964E-01 3.979465610E-14 3.874506171E-01
3.300000000E+00 9.999999966E-01 3.229639072E-14 3.757096893E-01
3.400000000E+00 9.999999968E-01 2.997248447E-14 3.646594043E-01
3.500000000E+00 9.999999970E-01 2.489684194E-14 3.542405642E-01
3.600000000E+00 9.999999971E-01 2.272816579E-14 3.444005485E-01
3.700000000E+00 9.999999973E-01 1.946363522E-14 3.350924256E-01
3.800000000E+00 9.999999974E-01 1.733846016E-14 3.262742038E-01
3.900000000E+00 9.999999976E-01 1.646070774E-14 3.179081986E-01
4.000000000E+00 9.999999977E-01 1.376140240E-14 3.099604936E-01
4.100000000E+00 9.999999978E-01 1.265727255E-14 3.024004816E-01
4.200000000E+00 9.999999979E-01 1.109127739E-14 2.952004701E-01
4.300000000E+00 9.999999980E-01 9.981758147E-15 2.883353429E-01
4.400000000E+00 9.999999981E-01 9.338380480E-15 2.817822670E-01
4.500000000E+00 9.999999982E-01 8.163118196E-15 2.755204388E-01
4.600000000E+00 9.999999983E-01 7.393717391E-15 2.695308640E-01
4.700000000E+00 9.999999983E-01 6.953255170E-15 2.637961648E-01
4.800000000E+00 9.999999984E-01 6.127127062E-15 2.583004114E-01
4.900000000E+00 9.999999985E-01 5.586173094E-15 2.530289744E-01
5.000000000E+00 9.999999985E-01 5.219075548E-15 2.479683949E-01
5.100000000E+00 9.999999986E-01 5.016412484E-15 2.431062695E-01
5.200000000E+00 9.999999986E-01 4.292888656E-15 2.384311490E-01
5.300000000E+00 9.999999987E-01 3.945387310E-15 2.339324480E-01
5.400000000E+00 9.999999987E-01 3.800614867E-15 2.296003657E-01
5.500000000E+00 9.999999988E-01 3.346466551E-15 2.254258136E-01
5.600000000E+00 9.999999988E-01 3.086022964E-15 2.214003526E-01
5.700000000E+00 9.999999989E-01 2.896966116E-15 2.175161359E-01
5.800000000E+00 9.999999989E-01 2.797931899E-15 2.137658577E-01
5.900000000E+00 9.999999989E-01 2.447765899E-15 2.101427076E-01
6.000000000E+00 9.999999990E-01 2.268923820E-15 2.066403291E-01
6.100000000E+00 9.999999990E-01 2.148063761E-15 2.032527827E-01
6.200000000E+00 9.999999990E-01 2.079330191E-15 1.999745120E-01
6.300000000E+00 9.999999991E-01 1.827449466E-15 1.968003134E-01
6.400000000E+00 9.999999991E-01 1.702218323E-15 1.937253085E-01
6.500000000E+00 9.999999991E-01 1.606461853E-15 1.907449192E-01
6.600000000E+00 9.999999991E-01 1.558149984E-15 1.878548446E-01
6.700000000E+00 9.999999992E-01 1.389644942E-15 1.850510410E-01
6.800000000E+00 9.999999992E-01 1.300463077E-15 1.823297021E-01
6.900000000E+00 9.999999992E-01 1.217198403E-15 1.796872427E-01
7.000000000E+00 9.999999992E-01 1.176142132E-15 1.771202821E-01
7.100000000E+00 9.999999993E-01 1.143244683E-15 1.746256302E-01
7.200000000E+00 9.999999993E-01 1.008972783E-15 1.722002742E-01
7.300000000E+00 9.999999993E-01 9.483135464E-16 1.698413664E-01
7.400000000E+00 9.999999993E-01 8.935225734E-16 1.675462128E-01
7.500000000E+00 9.999999993E-01 8.698541532E-16 1.653122633E-01
7.600000000E+00 9.999999994E-01 8.471138525E-16 1.631371019E-01
7.700000000E+00 9.999999994E-01 7.481722382E-16 1.610184383E-01
7.800000000E+00 9.999999994E-01 7.059028864E-16 1.589540993E-01
7.900000000E+00 9.999999994E-01 6.660932232E-16 1.569420221E-01
8.000000000E+00 9.999999994E-01 6.490958609E-16 1.549802468E-01
8.100000000E+00 9.999999994E-01 6.331677350E-16 1.530669104E-01
8.200000000E+00 9.999999994E-01 5.651677669E-16 1.512002408E-01
8.300000000E+00 9.999999995E-01 5.352066537E-16 1.493785512E-01
8.400000000E+00 9.999999995E-01 5.068853804E-16 1.476002351E-01
8.500000000E+00 9.999999995E-01 4.881493097E-16 1.458637617E-01
8.600000000E+00 9.999999995E-01 4.768630020E-16 1.441676715E-01
8.700000000E+00 9.999999995E-01 4.659636362E-16 1.425105718E-01
8.800000000E+00 9.999999995E-01 4.126518546E-16 1.408911335E-01
8.900000000E+00 9.999999995E-01 3.922252893E-16 1.393080870E-01
9.000000000E+00 9.999999995E-01 3.728431484E-16 1.377602194E-01
9.100000000E+00 9.999999996E-01 3.615777772E-16 1.362463708E-01
9.200000000E+00 9.999999996E-01 3.537601102E-16 1.347654320E-01
9.300000000E+00 9.999999996E-01 3.461932678E-16 1.333163414E-01
9.400000000E+00 9.999999996E-01 3.078050420E-16 1.318980824E-01
9.500000000E+00 9.999999996E-01 2.935427795E-16 1.305096815E-01
9.600000000E+00 9.999999996E-01 2.799643488E-16 1.291502057E-01
9.700000000E+00 9.999999996E-01 2.701705861E-16 1.278187603E-01
9.800000000E+00 9.999999996E-01 2.646850317E-16 1.265144872E-01
9.900000000E+00 9.999999996E-01 2.593648653E-16 1.252365631E-01
1.000000000E+01 9.999999996E-01 2.337785448E-16 1.239841975E-01
1.010000000E+01 9.999999996E-01 2.236060484E-16 1.227566311E-01
1.020000000E+01 9.999999996E-01 2.138925882E-16 1.215531348E-01
1.030000000E+01 9.999999997E-01 2.046142506E-16 1.203730072E-01
1.040000000E+01 9.999999997E-01 1.995307731E-16 1.192155745E-01
1.050000000E+01 9.999999997E-01 1.957482850E-16 1.180801881E-01
1.060000000E+01 9.999999997E-01 1.920723426E-16 1.169662240E-01
1.070000000E+01 9.999999997E-01 1.728735417E-16 1.158730817E-01
1.080000000E+01 9.999999997E-01 1.657939754E-16 1.148001828E-01
1.090000000E+01 9.999999997E-01 1.590140441E-16 1.137469701E-01
1.100000000E+01 9.999999997E-01 1.525191110E-16 1.127129068E-01
1.110000000E+01 9.999999997E-01 1.487085548E-16 1.116974752E-01
1.120000000E+01 9.999999997E-01 1.460648999E-16 1.107001763E-01
1.130000000E+01 9.999999997E-01 1.434911194E-16 1.097205287E-01
1.140000000E+01 9.999999997E-01 1.409847725E-16 1.087580679E-01
1.150000000E+01 9.999999997E-01 1.253995279E-16 1.078123456E-01
1.160000000E+01 9.999999997E-01 1.206296464E-16 1.068829288E-01
1.170000000E+01 9.999999997E-01 1.160477957E-16 1.059693995E-01
1.180000000E+01 9.999999997E-01 1.117233650E-16 1.050713538E-01
1.190000000E+01 9.999999997E-01 1.098535509E-16 1.041884012E-01
1.200000000E+01 9.999999997E-01 1.080302871E-16 1.033201645E-01
1.210000000E+01 9.999999997E-01 1.062520412E-16 1.024662789E-01
1.220000000E+01 9.999999998E-01 9.641133660E-17 1.016263914E-01
1.230000000E+01 9.999999998E-01 9.295317816E-17 1.008001605E-01
1.240000000E+01 9.999999998E-01 8.962368606E-17 9.998725601E-02
1.250000000E+01 9.999999998E-01 8.641732600E-17 9.918735797E-02
1.260000000E+01 9.999999998E-01 8.332883861E-17 9.840015671E-02
1.270000000E+01 9.999999998E-01 8.189219432E-17 9.762535233E-02
1.280000000E+01 9.999999998E-01 8.061762709E-17 9.686265426E-02
1.290000000E+01 9.999999998E-01 7.937258592E-17 9.611178098E-02
1.300000000E+01 9.999999998E-01 7.815616581E-17 9.537245958E-02
1.310000000E+01 9.999999998E-01 7.019843459E-17 9.464442554E-02
1.320000000E+01 9.999999998E-01 6.784536295E-17 9.392742232E-02
1.330000000E+01 9.999999998E-01 6.557401692E-17 9.322120110E-02
1.340000000E+01 9.999999998E-01 6.338111452E-17 9.252552049E-02
1.350000000E+01 9.999999998E-01 6.153923085E-17 9.184014627E-02
1.360000000E+01 9.999999998E-01 6.063756933E-17 9.116485107E-02
1.370000000E+01 9.999999998E-01 5.975558007E-17 9.049941420E-02
1.380000000E+01 9.999999998E-01 5.889269493E-17 8.984362135E-02
1.390000000E+01 9.999999998E-01 5.804836615E-17 8.919726436E-02
1.400000000E+01 9.999999998E-01 5.222449549E-17 8.856014104E-02
1.410000000E+01 9.999999998E-01 5.058673728E-17 8.793205493E-02
1.420000000E+01 9.999999998E-01 4.900226345E-17 8.731281511E-02
1.430000000E+01 9.999999998E-01 4.746906821E-17 8.670223598E-02
1.440000000E+01 9.999999998E-01 4.598523307E-17 8.610013712E-02
1.450000000E+01 9.999999998E-01 4.529878052E-17 8.550634307E-02
1.460000000E+01 9.999999998E-01 4.468037439E-17 8.492068319E-02
1.470000000E+01 9.999999998E-01 4.407454581E-17 8.434299147E-02
1.480000000E+01 9.999999998E-01 4.348095601E-17 8.377310639E-02
1.490000000E+01 9.999999998E-01 3.958571413E-17 8.321087078E-02
1.500000000E+01 9.999999998E-01 3.842307081E-17 8.265613164E-02
1.510000000E+01 9.999999998E-01 3.729597213E-17 8.210874004E-02
1.520000000E+01 9.999999998E-01 3.620315948E-17 8.156855096E-02
1.530000000E+01 9.999999998E-01 3.514342582E-17 8.103542318E-02
1.540000000E+01 9.999999998E-01 3.411561326E-17 8.050921913E-02
1.550000000E+01 9.999999998E-01 3.366692389E-17 7.998980481E-02
1.560000000E+01 9.999999998E-01 3.323668008E-17 7.947704965E-02
1.570000000E+01 9.999999998E-01 3.281463128E-17 7.897082641E-02
1.580000000E+01 9.999999999E-01 3.240057068E-17 7.847101105E-02
1.590000000E+01 9.999999999E-01 3.199429795E-17 7.797748268E-02
1.600000000E+01 9.999999999E-01 2.883501627E-17 7.749012341E-02
1.610000000E+01 9.999999999E-01 2.804195239E-17 7.700881830E-02
1.620000000E+01 9.999999999E-01 2.727152864E-17 7.653345522E-02
1.630000000E+01 9.999999999E-01 2.652299663E-17 7.606392482E-02
1.640000000E+01 9.999999999E-01 2.579563662E-17 7.560012040E-02
1.650000000E+01 9.999999999E-01 2.523369921E-17 7.514193785E-02
1.660000000E+01 9.999999999E-01 2.493059446E-17 7.468927558E-02
1.670000000E+01 9.999999999E-01 2.463291839E-17 7.424203441E-02
1.680000000E+01 9.999999999E-01 2.434054213E-17 7.380011753E-02
1.690000000E+01 9.999999999E-01 2.405334060E-17 7.336343045E-02
1.700000000E+01 9.999999999E-01 2.377119242E-17 7.293188086E-02
1.710000000E+01 9.999999999E-01 2.145294050E-17 7.250537863E-02
1.720000000E+01 9.999999999E-01 2.090099539E-17 7.208383573E-02
1.730000000E+01 9.999999999E-01 2.036380654E-17 7.166716616E-02
1.740000000E+01 9.999999999E-01 1.984091690E-17 7.125528590E-02
1.750000000E+01 9.999999999E-01 1.933188581E-17 7.084811283E-02
1.760000000E+01 9.999999999E-01 1.883933389E-17 7.044556674E-02
1.770000000E+01 9.999999999E-01 1.862706140E-17 7.004756919E-02
1.780000000E+01 9.999999999E-01 1.841835648E-17 6.965404352E-02
1.790000000E+01 9.999999999E-01 1.821313962E-17 6.926491478E-02
1.800000000E+01 9.999999999E-01 1.801133354E-17 6.888010970E-02
1.810000000E+01 9.999999999E-01 1.781286306E-17 6.849955661E-02
1.820000000E+01 9.999999999E-01 1.626223528E-17 6.812318542E-02
1.830000000E+01 9.999999999E-01 1.587050674E-17 6.775092757E-02
1.840000000E+01 9.999999999E-01 1.548861631E-17 6.738271601E-02
1.850000000E+01 9.999999999E-01 1.511627746E-17 6.701848511E-02
1.860000000E+01 9.999999999E-01 1.475321333E-17 6.665817068E-02
1.870000000E+01 9.999999999E-01 1.439915634E-17 6.630170987E-02
1.880000000E+01 9.999999999E-01 1.405384786E-17 6.594904120E-02
1.890000000E+01 9.999999999E-01 1.387903270E-17 6.560010448E-02
1.900000000E+01 9.999999999E-01 1.373332208E-17 6.525484077E-02
1.910000000E+01 9.999999999E-01 1.358989411E-17 6.491319239E-02
1.920000000E+01 9.999999999E-01 1.344870136E-17 6.457510284E-02
1.930000000E+01 9.999999999E-01 1.330969763E-17 6.424051682E-02
1.940000000E+01 9.999999999E-01 1.317283789E-17 6.390938013E-02
1.950000000E+01 9.999999999E-01 1.196877423E-17 6.358163972E-02
1.960000000E+01 9.999999999E-01 1.169885614E-17 6.325724360E-02
1.970000000E+01 9.999999999E-01 1.143527622E-17 6.293614084E-02
1.980000000E+01 9.999999999E-01 1.117786188E-17 6.261828154E-02
1.990000000E+01 9.999999999E-01 1.092644597E-17 6.230361681E-02
2.000000000E+01 9.999999999E-01 1.068086660E-17 6.199209873E-02
2.010000000E+01 9.999999999E-01 1.044096692E-17 6.168368033E-02
2.020000000E+01 9.999999999E-01 1.032337040E-17 6.137831557E-02
2.030000000E+01 9.999999999E-01 1.022191283E-17 6.107595934E-02
2.040000000E+01 9.999999999E-01 1.012194363E-17 6.077656738E-02
2.050000000E+01 9.999999999E-01 1.002343381E-17 6.048009632E-02
2.060000000E+01 9.999999999E-01 9.926355123E-18 6.018650362E-02
2.070000000E+01 9.999999999E-01 9.830679969E-18 5.989574756E-02
2.080000000E+01 9.999999999E-01 8.985807655E-18 5.960778724E-02
2.090000000E+01 9.999999999E-01 8.796204257E-18 5.932258252E-02
2.100000000E+01 9.999999999E-01 8.610775607E-18 5.904009403E-02
2.110000000E+01 9.999999999E-01 8.429415031E-18 5.876028316E-02
2.120000000E+01 9.999999999E-01 8.252019016E-18 5.848311201E-02
2.130000000E+01 9.999999999E-01 8.078487102E-18 5.820854341E-02
2.140000000E+01 9.999999999E-01 7.908721775E-18 5.793654087E-02
2.150000000E+01 9.999999999E-01 7.743636744E-18 5.766706859E-02
2.160000000E+01 9.999999999E-01 7.672102377E-18 5.740009142E-02
2.170000000E+01 9.999999999E-01 7.601554683E-18 5.713557487E-02
2.180000000E+01 9.999999999E-01 7.531975601E-18 5.687348507E-02
2.190000000E+01 9.999999999E-01 7.463347480E-18 5.661378879E-02
2.200000000E+01 9.999999999E-01 7.395653068E-18 5.635645339E-02
2.210000000E+01 9.999999999E-01 7.328875504E-18 5.610144681E-02
2.220000000E+01 9.999999999E-01 7.262998305E-18 5.584873759E-02
2.230000000E+01 9.999999999E-01 6.596391963E-18 5.559829482E-02
2.240000000E+01 9.999999999E-01 6.466191144E-18 5.535008815E-02
2.250000000E+01 9.999999999E-01 6.338668618E-18 5.510408776E-02
2.260000000E+01 9.999999999E-01 6.213760452E-18 5.486026436E-02
2.270000000E+01 9.999999999E-01 6.091404482E-18 5.461858919E-02
2.280000000E+01 9.999999999E-01 5.971540257E-18 5.437903397E-02
2.290000000E+01 9.999999999E-01 5.854108984E-18 5.414157094E-02
2.300000000E+01 9.999999999E-01 5.751017779E-18 5.390617281E-02
2.310000000E+01 9.999999999E-01 5.701333193E-18 5.367281275E-02
2.320000000E+01 9.999999999E-01 5.652289694E-18 5.344146442E-02
2.330000000E+01 9.999999999E-01 5.603876301E-18 5.321210191E-02
2.340000000E+01 9.999999999E-01 5.556082265E-18 5.298469977E-02
2.350000000E+01 9.999999999E-01 5.508897067E-18 5.275923296E-02
2.360000000E+01 9.999999999E-01 5.462310408E-18 5.253567689E-02
2.370000000E+01 9.999999999E-01 5.416312210E-18 5.231400737E-02
2.380000000E+01 9.999999999E-01 4.942712430E-18 5.209420061E-02
2.390000000E+01 9.999999999E-01 4.851566691E-18 5.187623325E-02
2.400000000E+01 9.999999999E-01 4.762177393E-18 5.166008227E-02
2.410000000E+01 9.999999999E-01 4.674505227E-18 5.144572509E-02
2.420000000E+01 9.999999999E-01 4.588511902E-18 5.123313945E-02
2.430000000E+01 9.999999999E-01 4.504160119E-18 5.102230348E-02
2.440000000E+01 9.999999999E-01 4.421413539E-18 5.081319568E-02
2.450000000E+01 9.999999999E-01 4.340236755E-18 5.060579488E-02
2.460000000E+01 9.999999999E-01 4.273535708E-18 5.040008027E-02
2.470000000E+01 9.999999999E-01 4.239002227E-18 5.019603136E-02
2.480000000E+01 9.999999999E-01 4.204885648E-18 4.999362801E-02
2.490000000E+01 9.999999999E-01 4.171179285E-18 4.979285038E-02
2.500000000E+01 9.999999999E-01 4.137876590E-18 4.959367898E-02
2.510000000E+01 9.999999999E-01 4.104971141E-18 4.939609460E-02
2.520000000E+01 9.999999999E-01 4.072456646E-18 4.920007836E-02
2.530000000E+01 9.999999999E-01 4.040326937E-18 4.900561164E-02
2.540000000E+01 9.999999999E-01 3.704281159E-18 4.881267616E-02
2.550000000E+01 9.999999999E-01 3.640202074E-18 4.862125391E-02
2.560000000E+01 9.999999999E-01 3.577281171E-18 4.843132713E-02
2.570000000E+01 9.999999999E-01 3.515494136E-18 4.824287839E-02
2.580000000E+01 9.999999999E-01 3.454817244E-18 4.805589049E-02
2.590000000E+01 9.999999999E-01 3.395227348E-18 4.787034651E-02
2.600000000E+01 9.999999999E-01 3.336701859E-18 4.768622979E-02
2.610000000E+01 9.999999999E-01 3.279218735E-18 4.750352393E-02
2.620000000E+01 9.999999999E-01 3.222756461E-18 4.732221277E-02
2.630000000E+01 9.999999999E-01 3.178961753E-18 4.714228040E-02
2.640000000E+01 9.999999999E-01 3.154924322E-18 4.696371116E-02
2.650000000E+01 9.999999999E-01 3.131158498E-18 4.678648961E-02
2.660000000E+01 9.999999999E-01 3.107660206E-18 4.661060055E-02
2.670000000E+01 9.999999999E-01 3.084425445E-18 4.643602901E-02
2.680000000E+01 9.999999999E-01 3.061450289E-18 4.626276025E-02
2.690000000E+01 9.999999999E-01 3.038730884E-18 4.609077972E-02
2.700000000E+01 9.999999999E-01 3.016263450E-18 4.592007313E-02
2.710000000E+01 9.999999999E-01 2.994044274E-18 4.575062637E-02
2.720000000E+01 9.999999999E-01 2.734797742E-18 4.558242554E-02
2.730000000E+01 1.000000000E+00 2.690636176E-18 4.541545694E-02
2.740000000E+01 1.000000000E+00 2.647220362E-18 4.524970710E-02
2.750000000E+01 1.000000000E+00 2.604535666E-18 4.508516271E-02
2.760000000E+01 1.000000000E+00 2.562567787E-18 4.492181067E-02
2.770000000E+01 1.000000000E+00 2.521302750E-18 4.475963807E-02
2.780000000E+01 1.000000000E+00 2.480726894E-18 4.459863218E-02
2.790000000E+01 1.000000000E+00 2.440826868E-18 4.443878045E-02
2.800000000E+01 1.000000000E+00 2.401589618E-18 4.428007052E-02
2.810000000E+01 1.000000000E+00 2.368125989E-18 4.412249020E-02
2.820000000E+01 1.000000000E+00 2.351360548E-18 4.396602747E-02
2.830000000E+01 1.000000000E+00 2.334772519E-18 4.381067048E-02
2.840000000E+01 1.000000000E+00 2.318359406E-18 4.365640756E-02
2.850000000E+01 1.000000000E+00 2.302118759E-18 4.350322718E-02
2.860000000E+01 1.000000000E+00 2.286048172E-18 4.335111799E-02
2.870000000E+01 1.000000000E+00 2.270145276E-18 4.320006880E-02
2.880000000E+01 1.000000000E+00 2.254407748E-18 4.305006856E-02
2.890000000E+01 1.000000000E+00 2.238833302E-18 4.290110639E-02
2.900000000E+01 1.000000000E+00 2.223419694E-18 4.275317154E-02
2.910000000E+01 1.000000000E+00 2.028301125E-18 4.260625342E-02
2.920000000E+01 1.000000000E+00 1.997657003E-18 4.246034160E-02
2.930000000E+01 1.000000000E+00 1.967496992E-18 4.231542575E-02
2.940000000E+01 1.000000000E+00 1.937812204E-18 4.217149573E-02
2.950000000E+01 1.000000000E+00 1.908593939E-18 4.202854151E-02
2.960000000E+01 1.000000000E+00 1.879833683E-18 4.188655320E-02
2.970000000E+01 1.000000000E+00 1.851523102E-18 4.174552103E-02
2.980000000E+01 1.000000000E+00 1.823654039E-18 4.160543539E-02
2.990000000E+01 1.000000000E+00 1.796218506E-18 4.146628678E-02
3.000000000E+01 1.000000000E+00 1.769208685E-18 4.132806582E-02
3.010000000E+01 1.000000000E+00 1.755518002E-18 4.119076328E-02
3.020000000E+01 1.000000000E+00 1.743911303E-18 4.105437002E-02
3.030000000E+01 1.000000000E+00 1.732419333E-18 4.091887705E-02
3.040000000E+01 1.000000000E+00 1.721040583E-18 4.078427548E-02
3.050000000E+01 1.000000000E+00 1.709773572E-18 4.065055654E-02
3.060000000E+01 1.000000000E+00 1.698616841E-18 4.051771159E-02
3.070000000E+01 1.000000000E+00 1.687568956E-18 4.038573207E-02
3.080000000E+01 1.000000000E+00 1.676628505E-18 4.025460956E-02
3.090000000E+01 1.000000000E+00 1.665794100E-18 4.012433575E-02
3.100000000E+01 1.000000000E+00 1.655064376E-18 3.999490241E-02
3.110000000E+01 1.000000000E+00 1.511748296E-18 3.986630143E-02
3.120000000E+01 1.000000000E+00 1.490404402E-18 3.973852483E-02
3.130000000E+01 1.000000000E+00 1.469376060E-18 3.961156468E-02
3.140000000E+01 1.000000000E+00 1.448657847E-18 3.948541320E-02
3.150000000E+01 1.000000000E+00 1.428244446E-18 3.936006269E-02
3.160000000E+01 1.000000000E+00 1.408130646E-18 3.923550552E-02
3.170000000E+01 1.000000000E+00 1.388311341E-18 3.911173421E-02
3.180000000E+01 1.000000000E+00 1.368781524E-18 3.898874134E-02
3.190000000E+01 1.000000000E+00 1.349536289E-18 3.886651958E-02
3.200000000E+01 1.000000000E+00 1.330570823E-18 3.874506171E-02
3.210000000E+01 1.000000000E+00 1.313229661E-18 3.862436058E-02
3.220000000E+01 1.000000000E+00 1.305085620E-18 3.850440915E-02
3.230000000E+01 1.000000000E+00 1.297017104E-18 3.838520045E-02
3.240000000E+01 1.000000000E+00 1.289023181E-18 3.826672761E-02
3.250000000E+01 1.000000000E+00 1.281102934E-18 3.814898383E-02
3.260000000E+01 1.000000000E+00 1.273255462E-18 3.803196241E-02
3.270000000E+01 1.000000000E+00 1.265479874E-18 3.791565672E-02
