# 08/03/2022 
# Density retrieved from www.chemicool.com/densities.html 
# Includes the real (n) and complex (k) part of the  refractive index. 
# Element, Kr  (Z = 36) 
# Nominal density, g cm-3 =  0.003708 
#    E [keV]      n       k    Wavelength [nm] 
2.000000000E+00 9.999998664E-01 6.411914885E-08 6.199209873E-01
2.100000000E+00 9.999998715E-01 5.404994421E-08 5.904009403E-01
2.200000000E+00 9.999998787E-01 4.608674965E-08 5.635645339E-01
2.300000000E+00 9.999998860E-01 3.945409634E-08 5.390617281E-01
2.400000000E+00 9.999998932E-01 3.398740978E-08 5.166008227E-01
2.500000000E+00 9.999999001E-01 2.948491740E-08 4.959367898E-01
2.600000000E+00 9.999999066E-01 2.569104984E-08 4.768622979E-01
2.700000000E+00 9.999999126E-01 2.255164325E-08 4.592007313E-01
2.800000000E+00 9.999999180E-01 1.981196154E-08 4.428007052E-01
2.900000000E+00 9.999999231E-01 1.751460310E-08 4.275317154E-01
3.000000000E+00 9.999999278E-01 1.559937156E-08 4.132806582E-01
3.100000000E+00 9.999999320E-01 1.381381661E-08 3.999490241E-01
3.200000000E+00 9.999999359E-01 1.235014675E-08 3.874506171E-01
3.300000000E+00 9.999999396E-01 1.102034697E-08 3.757096893E-01
3.400000000E+00 9.999999428E-01 9.926183782E-09 3.646594043E-01
3.500000000E+00 9.999999458E-01 8.904278743E-09 3.542405642E-01
3.600000000E+00 9.999999487E-01 8.000358237E-09 3.444005485E-01
3.700000000E+00 9.999999514E-01 7.254841125E-09 3.350924256E-01
3.800000000E+00 9.999999539E-01 6.549793862E-09 3.262742038E-01
3.900000000E+00 9.999999562E-01 5.945877878E-09 3.179081986E-01
4.000000000E+00 9.999999583E-01 5.412191676E-09 3.099604936E-01
4.100000000E+00 9.999999603E-01 4.931969179E-09 3.024004816E-01
4.200000000E+00 9.999999622E-01 4.505098322E-09 2.952004701E-01
4.300000000E+00 9.999999639E-01 4.125395134E-09 2.883353429E-01
4.400000000E+00 9.999999656E-01 3.791566990E-09 2.817822670E-01
4.500000000E+00 9.999999671E-01 3.480380426E-09 2.755204388E-01
4.600000000E+00 9.999999685E-01 3.209183208E-09 2.695308640E-01
4.700000000E+00 9.999999699E-01 2.969953639E-09 2.637961648E-01
4.800000000E+00 9.999999711E-01 2.736787008E-09 2.583004114E-01
4.900000000E+00 9.999999723E-01 2.534811406E-09 2.530289744E-01
5.000000000E+00 9.999999734E-01 2.351594747E-09 2.479683949E-01
5.100000000E+00 9.999999745E-01 2.184961237E-09 2.431062695E-01
5.200000000E+00 9.999999754E-01 2.032519894E-09 2.384311490E-01
5.300000000E+00 9.999999764E-01 1.902428158E-09 2.339324480E-01
5.400000000E+00 9.999999772E-01 1.771509824E-09 2.296003657E-01
5.500000000E+00 9.999999781E-01 1.652182668E-09 2.254258136E-01
5.600000000E+00 9.999999789E-01 1.545152175E-09 2.214003526E-01
5.700000000E+00 9.999999796E-01 1.448414341E-09 2.175161359E-01
5.800000000E+00 9.999999803E-01 1.357337611E-09 2.137658577E-01
5.900000000E+00 9.999999810E-01 1.274825605E-09 2.101427076E-01
6.000000000E+00 9.999999816E-01 1.201612108E-09 2.066403291E-01
6.100000000E+00 9.999999822E-01 1.127503373E-09 2.032527827E-01
6.200000000E+00 9.999999828E-01 1.061865697E-09 1.999745120E-01
6.300000000E+00 9.999999834E-01 1.002324399E-09 1.968003134E-01
6.400000000E+00 9.999999839E-01 9.472512321E-10 1.937253085E-01
6.500000000E+00 9.999999844E-01 8.956753812E-10 1.907449192E-01
6.600000000E+00 9.999999849E-01 8.473571753E-10 1.878548446E-01
6.700000000E+00 9.999999853E-01 8.222516942E-10 1.850510410E-01
6.800000000E+00 9.999999858E-01 7.568152156E-10 1.823297021E-01
6.900000000E+00 9.999999862E-01 7.172280177E-10 1.796872427E-01
7.000000000E+00 9.999999866E-01 6.943462835E-10 1.771202821E-01
7.100000000E+00 9.999999870E-01 6.749249730E-10 1.746256302E-01
7.200000000E+00 9.999999873E-01 6.140777688E-10 1.722002742E-01
7.300000000E+00 9.999999877E-01 5.837198404E-10 1.698413664E-01
7.400000000E+00 9.999999880E-01 5.559924623E-10 1.675462128E-01
7.500000000E+00 9.999999883E-01 5.412648398E-10 1.653122633E-01
7.600000000E+00 9.999999886E-01 5.271147375E-10 1.631371019E-01
7.700000000E+00 9.999999890E-01 4.791419741E-10 1.610184383E-01
7.800000000E+00 9.999999892E-01 4.565864858E-10 1.589540993E-01
7.900000000E+00 9.999999895E-01 4.352676708E-10 1.569420221E-01
8.000000000E+00 9.999999898E-01 4.242537336E-10 1.549802468E-01
8.100000000E+00 9.999999900E-01 4.138429958E-10 1.530669104E-01
8.200000000E+00 9.999999903E-01 3.791568275E-10 1.512002408E-01
8.300000000E+00 9.999999905E-01 3.623846680E-10 1.493785512E-01
8.400000000E+00 9.999999908E-01 3.464777405E-10 1.476002351E-01
8.500000000E+00 9.999999910E-01 3.351519276E-10 1.458637617E-01
8.600000000E+00 9.999999912E-01 3.274030120E-10 1.441676715E-01
8.700000000E+00 9.999999914E-01 3.199197618E-10 1.425105718E-01
8.800000000E+00 9.999999916E-01 2.907048541E-10 1.408911335E-01
8.900000000E+00 9.999999918E-01 2.784503858E-10 1.393080870E-01
9.000000000E+00 9.999999920E-01 2.667908940E-10 1.377602194E-01
9.100000000E+00 9.999999921E-01 2.593582629E-10 1.362463708E-01
9.200000000E+00 9.999999923E-01 2.537506823E-10 1.347654320E-01
9.300000000E+00 9.999999925E-01 2.483230172E-10 1.333163414E-01
9.400000000E+00 9.999999927E-01 2.250978440E-10 1.318980824E-01
9.500000000E+00 9.999999928E-01 2.158620054E-10 1.305096815E-01
9.600000000E+00 9.999999930E-01 2.070523931E-10 1.291502057E-01
9.700000000E+00 9.999999931E-01 2.004616526E-10 1.278187603E-01
9.800000000E+00 9.999999933E-01 1.963914712E-10 1.265144872E-01
9.900000000E+00 9.999999934E-01 1.924440047E-10 1.252365631E-01
1.000000000E+01 9.999999935E-01 1.764675094E-10 1.239841975E-01
1.010000000E+01 9.999999937E-01 1.696801844E-10 1.227566311E-01
1.020000000E+01 9.999999938E-01 1.631874411E-10 1.215531348E-01
1.030000000E+01 9.999999939E-01 1.569742235E-10 1.203730072E-01
1.040000000E+01 9.999999940E-01 1.532756781E-10 1.192155745E-01
1.050000000E+01 9.999999941E-01 1.503700439E-10 1.180801881E-01
1.060000000E+01 9.999999943E-01 1.475462562E-10 1.169662240E-01
1.070000000E+01 9.999999944E-01 1.352503268E-10 1.158730817E-01
1.080000000E+01 9.999999945E-01 1.303777016E-10 1.148001828E-01
1.090000000E+01 9.999999946E-01 1.257031652E-10 1.137469701E-01
1.100000000E+01 9.999999947E-01 1.212172302E-10 1.127129068E-01
1.110000000E+01 9.999999948E-01 1.183859839E-10 1.116974752E-01
1.120000000E+01 9.999999949E-01 1.162813862E-10 1.107001763E-01
1.130000000E+01 9.999999950E-01 1.142324151E-10 1.097205287E-01
1.140000000E+01 9.999999951E-01 1.122371274E-10 1.087580679E-01
1.150000000E+01 9.999999952E-01 1.020239423E-10 1.078123456E-01
1.160000000E+01 9.999999953E-01 9.862588210E-11 1.068829288E-01
1.170000000E+01 9.999999953E-01 9.535626053E-11 1.059693995E-01
1.180000000E+01 9.999999954E-01 9.225839270E-11 1.050713538E-01
1.190000000E+01 9.999999955E-01 9.071434644E-11 1.041884012E-01
1.200000000E+01 9.999999956E-01 8.920874027E-11 1.033201645E-01
1.210000000E+01 9.999999956E-01 8.774030872E-11 1.024662789E-01
1.220000000E+01 9.999999957E-01 8.105515765E-11 1.016263914E-01
1.230000000E+01 9.999999958E-01 7.851337815E-11 1.008001605E-01
1.240000000E+01 9.999999959E-01 7.606222464E-11 9.998725601E-02
1.250000000E+01 9.999999960E-01 7.369787983E-11 9.918735797E-02
1.260000000E+01 9.999999960E-01 7.141671370E-11 9.840015671E-02
1.270000000E+01 9.999999961E-01 7.021252359E-11 9.762535233E-02
1.280000000E+01 9.999999961E-01 6.911973834E-11 9.686265426E-02
1.290000000E+01 9.999999962E-01 6.805226807E-11 9.611178098E-02
1.300000000E+01 9.999999963E-01 6.700933686E-11 9.537245958E-02
1.310000000E+01 9.999999964E-01 6.146623235E-11 9.464442554E-02
1.320000000E+01 9.999999964E-01 5.967397694E-11 9.392742232E-02
1.330000000E+01 9.999999965E-01 5.794127656E-11 9.322120110E-02
1.340000000E+01 9.999999965E-01 5.626579097E-11 9.252552049E-02
1.350000000E+01 9.999999966E-01 5.482954891E-11 9.184014627E-02
1.360000000E+01 9.999999966E-01 5.402619641E-11 9.116485107E-02
1.370000000E+01 9.999999967E-01 5.324037129E-11 9.049941420E-02
1.380000000E+01 9.999999968E-01 5.022340927E-11 8.984362135E-02
1.390000000E+01 9.999999969E-01 4.883916363E-11 8.919726436E-02
1.400000000E+01 9.999999969E-01 4.749855537E-11 8.856014104E-02
1.410000000E+01 9.999999970E-01 4.657739792E-11 8.793205493E-02
1.420000000E+01 9.999999971E-01 4.496531147E-11 8.731281511E-02
1.430000000E+01 9.999999973E-01 4.376441454E-11 8.670223598E-02
1.440000000E+01 9.999999972E-01 3.109961460E-10 8.610013712E-02
1.450000000E+01 9.999999972E-01 3.267361085E-10 8.550634307E-02
1.460000000E+01 9.999999972E-01 3.137386960E-10 8.492068319E-02
1.470000000E+01 9.999999972E-01 3.089622132E-10 8.434299147E-02
1.480000000E+01 9.999999972E-01 3.048011535E-10 8.377310639E-02
1.490000000E+01 9.999999973E-01 3.007235920E-10 8.321087078E-02
1.500000000E+01 9.999999972E-01 2.825042727E-10 8.265613164E-02
1.510000000E+01 9.999999973E-01 2.752729457E-10 8.210874004E-02
1.520000000E+01 9.999999973E-01 2.682523096E-10 8.156855096E-02
1.530000000E+01 9.999999973E-01 2.614351025E-10 8.103542318E-02
1.540000000E+01 9.999999973E-01 2.548143544E-10 8.050921913E-02
1.550000000E+01 9.999999974E-01 2.514810589E-10 7.998980481E-02
1.560000000E+01 9.999999974E-01 2.482672765E-10 7.947704965E-02
1.570000000E+01 9.999999974E-01 2.451147081E-10 7.897082641E-02
1.580000000E+01 9.999999975E-01 2.420218090E-10 7.847101105E-02
1.590000000E+01 9.999999975E-01 2.389870828E-10 7.797748268E-02
1.600000000E+01 9.999999975E-01 2.216594784E-10 7.749012341E-02
1.610000000E+01 9.999999975E-01 2.166482875E-10 7.700881830E-02
1.620000000E+01 9.999999976E-01 2.117711891E-10 7.653345522E-02
1.630000000E+01 9.999999976E-01 2.070238918E-10 7.606392482E-02
1.640000000E+01 9.999999976E-01 2.024022651E-10 7.560012040E-02
1.650000000E+01 9.999999976E-01 1.986557455E-10 7.514193785E-02
1.660000000E+01 9.999999977E-01 1.962695119E-10 7.468927558E-02
1.670000000E+01 9.999999977E-01 1.939260164E-10 7.424203441E-02
1.680000000E+01 9.999999977E-01 1.916242443E-10 7.380011753E-02
1.690000000E+01 9.999999977E-01 1.893632111E-10 7.336343045E-02
1.700000000E+01 9.999999978E-01 1.871419609E-10 7.293188086E-02
1.710000000E+01 9.999999978E-01 1.743257529E-10 7.250537863E-02
1.720000000E+01 9.999999978E-01 1.707248390E-10 7.208383573E-02
1.730000000E+01 9.999999978E-01 1.672133460E-10 7.166716616E-02
1.740000000E+01 9.999999978E-01 1.637886050E-10 7.125528590E-02
1.750000000E+01 9.999999979E-01 1.604480412E-10 7.084811283E-02
1.760000000E+01 9.999999979E-01 1.572050364E-10 7.044556674E-02
1.770000000E+01 9.999999979E-01 1.554337261E-10 7.004756919E-02
1.780000000E+01 9.999999979E-01 1.536921855E-10 6.965404352E-02
1.790000000E+01 9.999999980E-01 1.519797511E-10 6.926491478E-02
1.800000000E+01 9.999999980E-01 1.502957780E-10 6.888010970E-02
1.810000000E+01 9.999999980E-01 1.486396388E-10 6.849955661E-02
1.820000000E+01 9.999999980E-01 1.395628286E-10 6.812318542E-02
1.830000000E+01 9.999999980E-01 1.368631470E-10 6.775092757E-02
1.840000000E+01 9.999999981E-01 1.342264218E-10 6.738271601E-02
1.850000000E+01 9.999999981E-01 1.316508867E-10 6.701848511E-02
1.860000000E+01 9.999999981E-01 1.291348338E-10 6.665817068E-02
1.870000000E+01 9.999999981E-01 1.266766110E-10 6.630170987E-02
1.880000000E+01 9.999999981E-01 1.242746201E-10 6.594904120E-02
1.890000000E+01 9.999999982E-01 1.228174605E-10 6.560010448E-02
1.900000000E+01 9.999999982E-01 1.215280473E-10 6.525484077E-02
1.910000000E+01 9.999999982E-01 1.202588335E-10 6.491319239E-02
1.920000000E+01 9.999999982E-01 1.190093996E-10 6.457510284E-02
1.930000000E+01 9.999999982E-01 1.177793365E-10 6.424051682E-02
1.940000000E+01 9.999999983E-01 1.165682460E-10 6.390938013E-02
1.950000000E+01 9.999999983E-01 1.087370534E-10 6.358163972E-02
1.960000000E+01 9.999999983E-01 1.067108598E-10 6.325724360E-02
1.970000000E+01 9.999999983E-01 1.047293391E-10 6.293614084E-02
1.980000000E+01 9.999999983E-01 1.027913127E-10 6.261828154E-02
1.990000000E+01 9.999999983E-01 1.008956381E-10 6.230361681E-02
2.000000000E+01 9.999999983E-01 9.904120825E-11 6.199209873E-02
2.010000000E+01 9.999999984E-01 9.722695000E-11 6.168368033E-02
2.020000000E+01 9.999999984E-01 9.617681365E-11 6.137831557E-02
2.030000000E+01 9.999999984E-01 9.523159272E-11 6.107595934E-02
2.040000000E+01 9.999999984E-01 9.430023799E-11 6.077656738E-02
2.050000000E+01 9.999999984E-01 9.338247958E-11 6.048009632E-02
2.060000000E+01 9.999999984E-01 9.247805411E-11 6.018650362E-02
2.070000000E+01 9.999999985E-01 9.158670458E-11 5.989574756E-02
2.080000000E+01 9.999999985E-01 8.573610024E-11 5.960778724E-02
2.090000000E+01 9.999999985E-01 8.422987611E-11 5.932258252E-02
2.100000000E+01 9.999999985E-01 8.275487311E-11 5.904009403E-02
2.110000000E+01 9.999999985E-01 8.131031719E-11 5.876028316E-02
2.120000000E+01 9.999999985E-01 7.989545675E-11 5.848311201E-02
2.130000000E+01 9.999999985E-01 7.850956200E-11 5.820854341E-02
2.140000000E+01 9.999999985E-01 7.715192417E-11 5.793654087E-02
2.150000000E+01 9.999999986E-01 7.582853464E-11 5.766706859E-02
2.160000000E+01 9.999999986E-01 7.512804385E-11 5.740009142E-02
2.170000000E+01 9.999999986E-01 7.443721493E-11 5.713557487E-02
2.180000000E+01 9.999999986E-01 7.375587100E-11 5.687348507E-02
2.190000000E+01 9.999999986E-01 7.308383924E-11 5.661378879E-02
2.200000000E+01 9.999999986E-01 7.242095069E-11 5.635645339E-02
2.210000000E+01 9.999999986E-01 7.176704027E-11 5.610144681E-02
2.220000000E+01 9.999999987E-01 7.112194655E-11 5.584873759E-02
2.230000000E+01 9.999999987E-01 6.625561654E-11 5.559829482E-02
2.240000000E+01 9.999999987E-01 6.516310876E-11 5.535008815E-02
2.250000000E+01 9.999999987E-01 6.409178761E-11 5.510408776E-02
2.260000000E+01 9.999999987E-01 6.304116198E-11 5.486026436E-02
2.270000000E+01 9.999999987E-01 6.201075411E-11 5.461858919E-02
2.280000000E+01 9.999999987E-01 6.100009918E-11 5.437903397E-02
2.290000000E+01 9.999999987E-01 6.000874488E-11 5.414157094E-02
2.300000000E+01 9.999999987E-01 5.912037110E-11 5.390617281E-02
2.310000000E+01 9.999999988E-01 5.860961435E-11 5.367281275E-02
2.320000000E+01 9.999999988E-01 5.810544797E-11 5.344146442E-02
2.330000000E+01 9.999999988E-01 5.760775906E-11 5.321210191E-02
2.340000000E+01 9.999999988E-01 5.711643713E-11 5.298469977E-02
2.350000000E+01 9.999999988E-01 5.663137404E-11 5.275923296E-02
2.360000000E+01 9.999999988E-01 5.615246394E-11 5.253567689E-02
2.370000000E+01 9.999999988E-01 5.567960319E-11 5.231400737E-02
2.380000000E+01 9.999999988E-01 5.203601724E-11 5.209420061E-02
2.390000000E+01 9.999999988E-01 5.123148944E-11 5.187623325E-02
2.400000000E+01 9.999999988E-01 5.044159331E-11 5.166008227E-02
2.410000000E+01 9.999999989E-01 4.966601070E-11 5.144572509E-02
2.420000000E+01 9.999999989E-01 4.890443157E-11 5.123313945E-02
2.430000000E+01 9.999999989E-01 4.815655377E-11 5.102230348E-02
2.440000000E+01 9.999999989E-01 4.742208278E-11 5.081319568E-02
2.450000000E+01 9.999999989E-01 4.670073151E-11 5.060579488E-02
2.460000000E+01 9.999999989E-01 4.608822536E-11 5.040008027E-02
2.470000000E+01 9.999999989E-01 4.571579678E-11 5.019603136E-02
2.480000000E+01 9.999999989E-01 4.534786430E-11 4.999362801E-02
2.490000000E+01 9.999999989E-01 4.498435583E-11 4.979285038E-02
2.500000000E+01 9.999999989E-01 4.462520073E-11 4.959367898E-02
2.510000000E+01 9.999999989E-01 4.427032977E-11 4.939609460E-02
2.520000000E+01 9.999999989E-01 4.391967507E-11 4.920007836E-02
2.530000000E+01 9.999999990E-01 4.357317011E-11 4.900561164E-02
2.540000000E+01 9.999999990E-01 4.086227916E-11 4.881267616E-02
2.550000000E+01 9.999999990E-01 4.026935255E-11 4.862125391E-02
2.560000000E+01 9.999999990E-01 3.968654200E-11 4.843132713E-02
2.570000000E+01 9.999999990E-01 3.911364116E-11 4.824287839E-02
2.580000000E+01 9.999999990E-01 3.855044858E-11 4.805589049E-02
2.590000000E+01 9.999999990E-01 3.799676764E-11 4.787034651E-02
2.600000000E+01 9.999999990E-01 3.745240640E-11 4.768622979E-02
2.610000000E+01 9.999999990E-01 3.691717745E-11 4.750352393E-02
2.620000000E+01 9.999999990E-01 3.639089780E-11 4.732221277E-02
2.630000000E+01 9.999999990E-01 3.596420413E-11 4.714228040E-02
2.640000000E+01 9.999999990E-01 3.569226405E-11 4.696371116E-02
2.650000000E+01 9.999999990E-01 3.542339673E-11 4.678648961E-02
2.660000000E+01 9.999999991E-01 3.515755605E-11 4.661060055E-02
2.670000000E+01 9.999999991E-01 3.489469674E-11 4.643602901E-02
2.680000000E+01 9.999999991E-01 3.463477439E-11 4.626276025E-02
2.690000000E+01 9.999999991E-01 3.437774541E-11 4.609077972E-02
2.700000000E+01 9.999999991E-01 3.412356702E-11 4.592007313E-02
2.710000000E+01 9.999999991E-01 3.387219721E-11 4.575062637E-02
2.720000000E+01 9.999999991E-01 3.163468480E-11 4.558242554E-02
2.730000000E+01 9.999999991E-01 3.120080832E-11 4.541545694E-02
2.740000000E+01 9.999999991E-01 3.077387916E-11 4.524970710E-02
2.750000000E+01 9.999999991E-01 3.035376455E-11 4.508516271E-02
2.760000000E+01 9.999999991E-01 2.994033470E-11 4.492181067E-02
2.770000000E+01 9.999999991E-01 2.953346270E-11 4.475963807E-02
2.780000000E+01 9.999999991E-01 2.913302449E-11 4.459863218E-02
2.790000000E+01 9.999999991E-01 2.873889874E-11 4.443878045E-02
2.800000000E+01 9.999999991E-01 2.835096680E-11 4.428007052E-02
2.810000000E+01 9.999999992E-01 2.801206078E-11 4.412249020E-02
2.820000000E+01 9.999999992E-01 2.781374593E-11 4.396602747E-02
2.830000000E+01 9.999999992E-01 2.761752964E-11 4.381067048E-02
2.840000000E+01 9.999999992E-01 2.742338241E-11 4.365640756E-02
2.850000000E+01 9.999999992E-01 2.723127524E-11 4.350322718E-02
2.860000000E+01 9.999999992E-01 2.704117966E-11 4.335111799E-02
2.870000000E+01 9.999999992E-01 2.685306768E-11 4.320006880E-02
2.880000000E+01 9.999999992E-01 2.666691179E-11 4.305006856E-02
2.890000000E+01 9.999999992E-01 2.648268497E-11 4.290110639E-02
2.900000000E+01 9.999999992E-01 2.630036066E-11 4.275317154E-02
2.910000000E+01 9.999999992E-01 2.447593718E-11 4.260625342E-02
2.920000000E+01 9.999999992E-01 2.415525125E-11 4.246034160E-02
2.930000000E+01 9.999999992E-01 2.383940510E-11 4.231542575E-02
2.940000000E+01 9.999999992E-01 2.352831184E-11 4.217149573E-02
2.950000000E+01 9.999999992E-01 2.322188642E-11 4.202854151E-02
2.960000000E+01 9.999999992E-01 2.292004558E-11 4.188655320E-02
2.970000000E+01 9.999999992E-01 2.262270779E-11 4.174552103E-02
2.980000000E+01 9.999999992E-01 2.232979321E-11 4.160543539E-02
2.990000000E+01 9.999999993E-01 2.204122367E-11 4.146628678E-02
3.000000000E+01 9.999999993E-01 2.175692261E-11 4.132806582E-02
3.010000000E+01 9.999999993E-01 2.159473254E-11 4.119076328E-02
3.020000000E+01 9.999999993E-01 2.145195784E-11 4.105437002E-02
3.030000000E+01 9.999999993E-01 2.131059442E-11 4.091887705E-02
3.040000000E+01 9.999999993E-01 2.117062373E-11 4.078427548E-02
3.050000000E+01 9.999999993E-01 2.103202755E-11 4.065055654E-02
3.060000000E+01 9.999999993E-01 2.089478793E-11 4.051771159E-02
3.070000000E+01 9.999999993E-01 2.075888723E-11 4.038573207E-02
3.080000000E+01 9.999999993E-01 2.062430809E-11 4.025460956E-02
3.090000000E+01 9.999999993E-01 2.049103343E-11 4.012433575E-02
3.100000000E+01 9.999999993E-01 2.035904644E-11 3.999490241E-02
3.110000000E+01 9.999999993E-01 1.895021362E-11 3.986630143E-02
3.120000000E+01 9.999999993E-01 1.871653497E-11 3.973852483E-02
3.130000000E+01 9.999999993E-01 1.848616461E-11 3.961156468E-02
3.140000000E+01 9.999999993E-01 1.825904688E-11 3.948541320E-02
3.150000000E+01 9.999999993E-01 1.803512719E-11 3.936006269E-02
3.160000000E+01 9.999999993E-01 1.781435204E-11 3.923550552E-02
3.170000000E+01 9.999999993E-01 1.759666900E-11 3.911173421E-02
3.180000000E+01 9.999999993E-01 1.738202662E-11 3.898874134E-02
3.190000000E+01 9.999999993E-01 1.717037449E-11 3.886651958E-02
3.200000000E+01 9.999999993E-01 1.696166315E-11 3.874506171E-02
3.210000000E+01 9.999999994E-01 1.676884058E-11 3.862436058E-02
3.220000000E+01 9.999999994E-01 1.666484802E-11 3.850440915E-02
3.230000000E+01 9.999999994E-01 1.656181984E-11 3.838520045E-02
3.240000000E+01 9.999999994E-01 1.645974415E-11 3.826672761E-02
3.250000000E+01 9.999999994E-01 1.635860925E-11 3.814898383E-02
3.260000000E+01 9.999999994E-01 1.625840361E-11 3.803196241E-02
3.270000000E+01 9.999999994E-01 1.615911588E-11 3.791565672E-02
