# 08/03/2022 
# Density retrieved from www.chemicool.com/densities.html 
# Includes the real (n) and complex (k) part of the  refractive index. 
# Element, La  (Z = 57) 
# Nominal density, g cm-3 =  6.16 
#    E [keV]      n       k    Wavelength [nm] 
2.000000000E+00 9.997632056E-01 7.368871605E-05 6.199209873E-01
2.100000000E+00 9.997833279E-01 6.098028967E-05 5.904009403E-01
2.200000000E+00 9.998015448E-01 5.151775910E-05 5.635645339E-01
2.300000000E+00 9.998176727E-01 4.435723187E-05 5.390617281E-01
2.400000000E+00 9.998320426E-01 3.890456423E-05 5.166008227E-01
2.500000000E+00 9.998447854E-01 3.346121098E-05 4.959367898E-01
2.600000000E+00 9.998563698E-01 3.022970657E-05 4.768622979E-01
2.700000000E+00 9.998666559E-01 2.581226351E-05 4.592007313E-01
2.800000000E+00 9.998759957E-01 2.379211382E-05 4.428007052E-01
2.900000000E+00 9.998843069E-01 2.030783634E-05 4.275317154E-01
3.000000000E+00 9.998918891E-01 1.893205863E-05 4.132806582E-01
3.100000000E+00 9.998986821E-01 1.611668259E-05 3.999490241E-01
3.200000000E+00 9.999049139E-01 1.508852439E-05 3.874506171E-01
3.300000000E+00 9.999107336E-01 1.290064852E-05 3.757096893E-01
3.400000000E+00 9.999159201E-01 1.203935685E-05 3.646594043E-01
3.500000000E+00 9.999208990E-01 1.042266474E-05 3.542405642E-01
3.600000000E+00 9.999252902E-01 9.628701176E-06 3.444005485E-01
3.700000000E+00 9.999295370E-01 8.517039247E-06 3.350924256E-01
3.800000000E+00 9.999333395E-01 7.749923650E-06 3.262742038E-01
3.900000000E+00 9.999367142E-01 7.357586950E-06 3.179081986E-01
4.000000000E+00 9.999402186E-01 6.422081803E-06 3.099604936E-01
4.100000000E+00 9.999431880E-01 5.978858699E-06 3.024004816E-01
4.200000000E+00 9.999461634E-01 5.391567558E-06 2.952004701E-01
4.300000000E+00 9.999488252E-01 4.954649842E-06 2.883353429E-01
4.400000000E+00 9.999511856E-01 4.670573389E-06 2.817822670E-01
4.500000000E+00 9.999537159E-01 4.214456283E-06 2.755204388E-01
4.600000000E+00 9.999559169E-01 3.896007824E-06 2.695308640E-01
4.700000000E+00 9.999578378E-01 3.689615847E-06 2.637961648E-01
4.800000000E+00 9.999600688E-01 3.350578206E-06 2.583004114E-01
4.900000000E+00 9.999619500E-01 3.113549199E-06 2.530289744E-01
5.000000000E+00 9.999635900E-01 2.939705206E-06 2.479683949E-01
5.100000000E+00 9.999650038E-01 2.825552870E-06 2.431062695E-01
5.200000000E+00 9.999675691E-01 2.516331032E-06 2.384311490E-01
5.300000000E+00 9.999692142E-01 2.351456487E-06 2.339324480E-01
5.400000000E+00 9.999711264E-01 2.212196873E-06 2.296003657E-01
5.500000000E+00 9.999747843E-01 5.023720414E-06 2.254258136E-01
5.600000000E+00 9.999732813E-01 5.932763552E-06 2.214003526E-01
5.700000000E+00 9.999737112E-01 5.602940255E-06 2.175161359E-01
5.800000000E+00 9.999743769E-01 5.226188115E-06 2.137658577E-01
5.900000000E+00 9.999766042E-01 4.886035376E-06 2.101427076E-01
6.000000000E+00 9.999754626E-01 6.318219028E-06 2.066403291E-01
6.100000000E+00 9.999757896E-01 5.941923536E-06 2.032527827E-01
6.200000000E+00 9.999764571E-01 5.592156160E-06 1.999745120E-01
6.300000000E+00 9.999770362E-01 6.102482318E-06 1.968003134E-01
6.400000000E+00 9.999771619E-01 5.781114439E-06 1.937253085E-01
6.500000000E+00 9.999775811E-01 5.503500701E-06 1.907449192E-01
6.600000000E+00 9.999782553E-01 5.337991382E-06 1.878548446E-01
6.700000000E+00 9.999784276E-01 4.911526178E-06 1.850510410E-01
6.800000000E+00 9.999788699E-01 4.661521271E-06 1.823297021E-01
6.900000000E+00 9.999793010E-01 4.426842385E-06 1.796872427E-01
7.000000000E+00 9.999798630E-01 4.286948599E-06 1.771202821E-01
7.100000000E+00 9.999804263E-01 4.167039900E-06 1.746256302E-01
7.200000000E+00 9.999806923E-01 3.809281516E-06 1.722002742E-01
7.300000000E+00 9.999811292E-01 3.627152781E-06 1.698413664E-01
7.400000000E+00 9.999815575E-01 3.460454269E-06 1.675462128E-01
7.500000000E+00 9.999820461E-01 3.368790680E-06 1.653122633E-01
7.600000000E+00 9.999825154E-01 3.280721533E-06 1.631371019E-01
7.700000000E+00 9.999828049E-01 2.999158904E-06 1.610184383E-01
7.800000000E+00 9.999831942E-01 2.863465148E-06 1.589540993E-01
7.900000000E+00 9.999835707E-01 2.735100497E-06 1.569420221E-01
8.000000000E+00 9.999839779E-01 2.666003110E-06 1.549802468E-01
8.100000000E+00 9.999843711E-01 2.600582213E-06 1.530669104E-01
8.200000000E+00 9.999846591E-01 2.394030971E-06 1.512002408E-01
8.300000000E+00 9.999849982E-01 2.291922852E-06 1.493785512E-01
8.400000000E+00 9.999853263E-01 2.195010183E-06 1.476002351E-01
8.500000000E+00 9.999856576E-01 2.124915427E-06 1.458637617E-01
8.600000000E+00 9.999859892E-01 2.075786095E-06 1.441676715E-01
8.700000000E+00 9.999863095E-01 2.028341123E-06 1.425105718E-01
8.800000000E+00 9.999865537E-01 1.857101405E-06 1.408911335E-01
8.900000000E+00 9.999868370E-01 1.782757228E-06 1.393080870E-01
9.000000000E+00 9.999871116E-01 1.711954119E-06 1.377602194E-01
9.100000000E+00 9.999873886E-01 1.665401693E-06 1.362463708E-01
9.200000000E+00 9.999876612E-01 1.629394072E-06 1.347654320E-01
9.300000000E+00 9.999879252E-01 1.594541730E-06 1.333163414E-01
9.400000000E+00 9.999881459E-01 1.459225024E-06 1.318980824E-01
9.500000000E+00 9.999883854E-01 1.403107172E-06 1.305096815E-01
9.600000000E+00 9.999886177E-01 1.349520157E-06 1.291502057E-01
9.700000000E+00 9.999888467E-01 1.308591558E-06 1.278187603E-01
9.800000000E+00 9.999890731E-01 1.282021863E-06 1.265144872E-01
9.900000000E+00 9.999892927E-01 1.256253236E-06 1.252365631E-01
1.000000000E+01 9.999894888E-01 1.161538947E-06 1.239841975E-01
1.010000000E+01 9.999896913E-01 1.119653605E-06 1.227566311E-01
1.020000000E+01 9.999898880E-01 1.079544736E-06 1.215531348E-01
1.030000000E+01 9.999900791E-01 1.041122614E-06 1.203730072E-01
1.040000000E+01 9.999902680E-01 1.017212331E-06 1.192155745E-01
1.050000000E+01 9.999904525E-01 9.979291221E-07 1.180801881E-01
1.060000000E+01 9.999906318E-01 9.791890861E-07 1.169662240E-01
1.070000000E+01 9.999907903E-01 9.050642858E-07 1.158730817E-01
1.080000000E+01 9.999909561E-01 8.744522097E-07 1.148001828E-01
1.090000000E+01 9.999911175E-01 8.450569185E-07 1.137469701E-01
1.100000000E+01 9.999912746E-01 8.168208041E-07 1.127129068E-01
1.110000000E+01 9.999914301E-01 7.983238261E-07 1.116974752E-01
1.120000000E+01 9.999915824E-01 7.841316853E-07 1.107001763E-01
1.130000000E+01 9.999917307E-01 7.703146574E-07 1.097205287E-01
1.140000000E+01 9.999918752E-01 7.568596384E-07 1.087580679E-01
1.150000000E+01 9.999920079E-01 6.930261618E-07 1.078123456E-01
1.160000000E+01 9.999921435E-01 6.710283501E-07 1.068829288E-01
1.170000000E+01 9.999922757E-01 6.498478541E-07 1.059693995E-01
1.180000000E+01 9.999924047E-01 6.297493824E-07 1.050713538E-01
1.190000000E+01 9.999925318E-01 6.192098298E-07 1.041884012E-01
1.200000000E+01 9.999926557E-01 6.089326667E-07 1.033201645E-01
1.210000000E+01 9.999927766E-01 5.989092548E-07 1.024662789E-01
1.220000000E+01 9.999928918E-01 5.557792714E-07 1.016263914E-01
1.230000000E+01 9.999930063E-01 5.389743162E-07 1.008001605E-01
1.240000000E+01 9.999931180E-01 5.227608376E-07 9.998725601E-02
1.250000000E+01 9.999932270E-01 5.071140862E-07 9.918735797E-02
1.260000000E+01 9.999933335E-01 4.920105220E-07 9.840015671E-02
1.270000000E+01 9.999934381E-01 4.837598165E-07 9.762535233E-02
1.280000000E+01 9.999935402E-01 4.762305958E-07 9.686265426E-02
1.290000000E+01 9.999936400E-01 4.688757936E-07 9.611178098E-02
1.300000000E+01 9.999937374E-01 4.616900640E-07 9.537245958E-02
1.310000000E+01 9.999938345E-01 4.249187392E-07 9.464442554E-02
1.320000000E+01 9.999939279E-01 4.128201801E-07 9.392742232E-02
1.330000000E+01 9.999940192E-01 4.011202811E-07 9.322120110E-02
1.340000000E+01 9.999941084E-01 3.898034439E-07 9.252552049E-02
1.350000000E+01 9.999941956E-01 3.800664851E-07 9.184014627E-02
1.360000000E+01 9.999942807E-01 3.744978207E-07 9.116485107E-02
1.370000000E+01 9.999943638E-01 3.690506522E-07 9.049941420E-02
1.380000000E+01 9.999944452E-01 3.637214709E-07 8.984362135E-02
1.390000000E+01 9.999945249E-01 3.585068936E-07 8.919726436E-02
1.400000000E+01 9.999946059E-01 3.305885081E-07 8.856014104E-02
1.410000000E+01 9.999946827E-01 3.218089849E-07 8.793205493E-02
1.420000000E+01 9.999947579E-01 3.133001439E-07 8.731281511E-02
1.430000000E+01 9.999948315E-01 3.050520640E-07 8.670223598E-02
1.440000000E+01 9.999949035E-01 2.970552485E-07 8.610013712E-02
1.450000000E+01 9.999949736E-01 2.927238935E-07 8.550634307E-02
1.460000000E+01 9.999950422E-01 2.887277098E-07 8.492068319E-02
1.470000000E+01 9.999951094E-01 2.848128031E-07 8.434299147E-02
1.480000000E+01 9.999951753E-01 2.809769842E-07 8.377310639E-02
1.490000000E+01 9.999952430E-01 2.614856273E-07 8.321087078E-02
1.500000000E+01 9.999953068E-01 2.549882852E-07 8.265613164E-02
1.510000000E+01 9.999953694E-01 2.486790563E-07 8.210874004E-02
1.520000000E+01 9.999954307E-01 2.425514574E-07 8.156855096E-02
1.530000000E+01 9.999954908E-01 2.365992666E-07 8.103542318E-02
1.540000000E+01 9.999955497E-01 2.308165112E-07 8.050921913E-02
1.550000000E+01 9.999956069E-01 2.278007991E-07 7.998980481E-02
1.560000000E+01 9.999956631E-01 2.248896366E-07 7.947704965E-02
1.570000000E+01 9.999957182E-01 2.220339242E-07 7.897082641E-02
1.580000000E+01 9.999957722E-01 2.192322624E-07 7.847101105E-02
1.590000000E+01 9.999958252E-01 2.164832956E-07 7.797748268E-02
1.600000000E+01 9.999958808E-01 2.001299212E-07 7.749012341E-02
1.610000000E+01 9.999959324E-01 1.954949202E-07 7.700881830E-02
1.620000000E+01 9.999959830E-01 1.909850563E-07 7.653345522E-02
1.630000000E+01 9.999960327E-01 1.865963062E-07 7.606392482E-02
1.640000000E+01 9.999960814E-01 1.823247976E-07 7.560012040E-02
1.650000000E+01 9.999961291E-01 1.788837882E-07 7.514193785E-02
1.660000000E+01 9.999961756E-01 1.767350535E-07 7.468927558E-02
1.670000000E+01 9.999962213E-01 1.746248031E-07 7.424203441E-02
1.680000000E+01 9.999962661E-01 1.725521235E-07 7.380011753E-02
1.690000000E+01 9.999963102E-01 1.705161280E-07 7.336343045E-02
1.700000000E+01 9.999963535E-01 1.685159562E-07 7.293188086E-02
1.710000000E+01 9.999963994E-01 1.560350030E-07 7.250537863E-02
1.720000000E+01 9.999964416E-01 1.526636906E-07 7.208383573E-02
1.730000000E+01 9.999964832E-01 1.493775275E-07 7.166716616E-02
1.740000000E+01 9.999965239E-01 1.461739499E-07 7.125528590E-02
1.750000000E+01 9.999965640E-01 1.430504843E-07 7.084811283E-02
1.760000000E+01 9.999966034E-01 1.400204350E-07 7.044556674E-02
1.770000000E+01 9.999966417E-01 1.384427525E-07 7.004756919E-02
1.780000000E+01 9.999966793E-01 1.368915855E-07 6.965404352E-02
1.790000000E+01 9.999967163E-01 1.353663429E-07 6.926491478E-02
1.800000000E+01 9.999967527E-01 1.338664504E-07 6.888010970E-02
1.810000000E+01 9.999967885E-01 1.323913493E-07 6.849955661E-02
1.820000000E+01 9.999968265E-01 1.236693157E-07 6.812318542E-02
1.830000000E+01 9.999968615E-01 1.211708228E-07 6.775092757E-02
1.840000000E+01 9.999968960E-01 1.187315627E-07 6.738271601E-02
1.850000000E+01 9.999969299E-01 1.163498593E-07 6.701848511E-02
1.860000000E+01 9.999969632E-01 1.140240917E-07 6.665817068E-02
1.870000000E+01 9.999969960E-01 1.117526927E-07 6.630170987E-02
1.880000000E+01 9.999970283E-01 1.095341465E-07 6.594904120E-02
1.890000000E+01 9.999970597E-01 1.082360118E-07 6.560010448E-02
1.900000000E+01 9.999970906E-01 1.070996836E-07 6.525484077E-02
1.910000000E+01 9.999971210E-01 1.059811567E-07 6.491319239E-02
1.920000000E+01 9.999971509E-01 1.048800613E-07 6.457510284E-02
1.930000000E+01 9.999971803E-01 1.037960369E-07 6.424051682E-02
1.940000000E+01 9.999972093E-01 1.027287325E-07 6.390938013E-02
1.950000000E+01 9.999972406E-01 9.569787788E-08 6.358163972E-02
1.960000000E+01 9.999972690E-01 9.389563608E-08 6.325724360E-02
1.970000000E+01 9.999972970E-01 9.213328662E-08 6.293614084E-02
1.980000000E+01 9.999973246E-01 9.040977469E-08 6.261828154E-02
1.990000000E+01 9.999973518E-01 8.872407816E-08 6.230361681E-02
2.000000000E+01 9.999973786E-01 8.707520644E-08 6.199209873E-02
2.010000000E+01 9.999974049E-01 8.546219933E-08 6.168368033E-02
2.020000000E+01 9.999974306E-01 8.453717576E-08 6.137831557E-02
2.030000000E+01 9.999974558E-01 8.370634860E-08 6.107595934E-02
2.040000000E+01 9.999974807E-01 8.288770953E-08 6.077656738E-02
2.050000000E+01 9.999975052E-01 8.208102129E-08 6.048009632E-02
2.060000000E+01 9.999975294E-01 8.128605240E-08 6.018650362E-02
2.070000000E+01 9.999975532E-01 8.050257695E-08 5.989574756E-02
2.080000000E+01 9.999975790E-01 7.535428956E-08 5.960778724E-02
2.090000000E+01 9.999976024E-01 7.402961417E-08 5.932258252E-02
2.100000000E+01 9.999976255E-01 7.273240324E-08 5.904009403E-02
2.110000000E+01 9.999976483E-01 7.146197575E-08 5.876028316E-02
2.120000000E+01 9.999976707E-01 7.021767049E-08 5.848311201E-02
2.130000000E+01 9.999976928E-01 6.899884538E-08 5.820854341E-02
2.140000000E+01 9.999977146E-01 6.780487686E-08 5.793654087E-02
2.150000000E+01 9.999977361E-01 6.664103839E-08 5.766706859E-02
2.160000000E+01 9.999977570E-01 6.602542009E-08 5.740009142E-02
2.170000000E+01 9.999977776E-01 6.541829301E-08 5.713557487E-02
2.180000000E+01 9.999977980E-01 6.481950172E-08 5.687348507E-02
2.190000000E+01 9.999978181E-01 6.422889430E-08 5.661378879E-02
2.200000000E+01 9.999978378E-01 6.364632230E-08 5.635645339E-02
2.210000000E+01 9.999978574E-01 6.307164062E-08 5.610144681E-02
2.220000000E+01 9.999978766E-01 6.250470740E-08 5.584873759E-02
2.230000000E+01 9.999978979E-01 5.828341194E-08 5.559829482E-02
2.240000000E+01 9.999979168E-01 5.732936121E-08 5.535008815E-02
2.250000000E+01 9.999979356E-01 5.639376196E-08 5.510408776E-02
2.260000000E+01 9.999979541E-01 5.547618708E-08 5.486026436E-02
2.270000000E+01 9.999979723E-01 5.457622108E-08 5.461858919E-02
2.280000000E+01 9.999979903E-01 5.369345969E-08 5.437903397E-02
2.290000000E+01 9.999980081E-01 5.282750953E-08 5.414157094E-02
2.300000000E+01 9.999980255E-01 5.205081350E-08 5.390617281E-02
2.310000000E+01 9.999980426E-01 5.160113256E-08 5.367281275E-02
2.320000000E+01 9.999980594E-01 5.115725391E-08 5.344146442E-02
2.330000000E+01 9.999980760E-01 5.071907816E-08 5.321210191E-02
2.340000000E+01 9.999980925E-01 5.028650804E-08 5.298469977E-02
2.350000000E+01 9.999981087E-01 4.985944834E-08 5.275923296E-02
2.360000000E+01 9.999981247E-01 4.943780585E-08 5.253567689E-02
2.370000000E+01 9.999981404E-01 4.902148933E-08 5.231400737E-02
2.380000000E+01 9.999981580E-01 4.585185637E-08 5.209420061E-02
2.390000000E+01 9.999981736E-01 4.514766954E-08 5.187623325E-02
2.400000000E+01 9.999981890E-01 4.445625780E-08 5.166008227E-02
2.410000000E+01 9.999982042E-01 4.377734372E-08 5.144572509E-02
2.420000000E+01 9.999982192E-01 4.311065694E-08 5.123313945E-02
2.430000000E+01 9.999982341E-01 4.245593399E-08 5.102230348E-02
2.440000000E+01 9.999982487E-01 4.181291803E-08 5.081319568E-02
2.450000000E+01 9.999982632E-01 4.118135871E-08 5.060579488E-02
2.460000000E+01 9.999982774E-01 4.064438082E-08 5.040008027E-02
2.470000000E+01 9.999982913E-01 4.031594272E-08 5.019603136E-02
2.480000000E+01 9.999983051E-01 3.999146965E-08 4.999362801E-02
2.490000000E+01 9.999983187E-01 3.967089804E-08 4.979285038E-02
2.500000000E+01 9.999983321E-01 3.935416559E-08 4.959367898E-02
2.510000000E+01 9.999983454E-01 3.904121124E-08 4.939609460E-02
2.520000000E+01 9.999983585E-01 3.873197514E-08 4.920007836E-02
2.530000000E+01 9.999983714E-01 3.842639862E-08 4.900561164E-02
2.540000000E+01 9.999983860E-01 3.603853982E-08 4.881267616E-02
2.550000000E+01 9.999983988E-01 3.551595230E-08 4.862125391E-02
2.560000000E+01 9.999984115E-01 3.500227861E-08 4.843132713E-02
2.570000000E+01 9.999984240E-01 3.449733692E-08 4.824287839E-02
2.580000000E+01 9.999984364E-01 3.400094978E-08 4.805589049E-02
2.590000000E+01 9.999984486E-01 3.351294393E-08 4.787034651E-02
2.600000000E+01 9.999984607E-01 3.303315028E-08 4.768622979E-02
2.610000000E+01 9.999984727E-01 3.256140369E-08 4.750352393E-02
2.620000000E+01 9.999984845E-01 3.209754295E-08 4.732221277E-02
2.630000000E+01 9.999984961E-01 3.172139067E-08 4.714228040E-02
2.640000000E+01 9.999985075E-01 3.148153224E-08 4.696371116E-02
2.650000000E+01 9.999985187E-01 3.124438407E-08 4.678648961E-02
2.660000000E+01 9.999985298E-01 3.100990546E-08 4.661060055E-02
2.670000000E+01 9.999985408E-01 3.077805652E-08 4.643602901E-02
2.680000000E+01 9.999985517E-01 3.054879805E-08 4.626276025E-02
2.690000000E+01 9.999985624E-01 3.032209161E-08 4.609077972E-02
2.700000000E+01 9.999985731E-01 3.009789946E-08 4.592007313E-02
2.710000000E+01 9.999985836E-01 2.987618457E-08 4.575062637E-02
2.720000000E+01 9.999985958E-01 2.780832638E-08 4.558242554E-02
2.730000000E+01 9.999986062E-01 2.741672087E-08 4.541545694E-02
2.740000000E+01 9.999986166E-01 2.703144511E-08 4.524970710E-02
2.750000000E+01 9.999986268E-01 2.665237752E-08 4.508516271E-02
2.760000000E+01 9.999986369E-01 2.627939930E-08 4.492181067E-02
2.770000000E+01 9.999986469E-01 2.591239428E-08 4.475963807E-02
2.780000000E+01 9.999986568E-01 2.555124889E-08 4.459863218E-02
2.790000000E+01 9.999986666E-01 2.519585209E-08 4.443878045E-02
2.800000000E+01 9.999986762E-01 2.484609530E-08 4.428007052E-02
2.810000000E+01 9.999986858E-01 2.454179030E-08 4.412249020E-02
2.820000000E+01 9.999986951E-01 2.436804366E-08 4.396602747E-02
2.830000000E+01 9.999987043E-01 2.419613560E-08 4.381067048E-02
2.840000000E+01 9.999987134E-01 2.402604027E-08 4.365640756E-02
2.850000000E+01 9.999987224E-01 2.385773227E-08 4.350322718E-02
2.860000000E+01 9.999987313E-01 2.369118666E-08 4.335111799E-02
2.870000000E+01 9.999987401E-01 2.352637890E-08 4.320006880E-02
2.880000000E+01 9.999987489E-01 2.336328491E-08 4.305006856E-02
2.890000000E+01 9.999987575E-01 2.320188101E-08 4.290110639E-02
2.900000000E+01 9.999987661E-01 2.304214392E-08 4.275317154E-02
2.910000000E+01 9.999987765E-01 2.138091010E-08 4.260625342E-02
2.920000000E+01 9.999987851E-01 2.109452202E-08 4.246034160E-02
2.930000000E+01 9.999987935E-01 2.081248934E-08 4.231542575E-02
2.940000000E+01 9.999988019E-01 2.053473356E-08 4.217149573E-02
2.950000000E+01 9.999988102E-01 2.026117785E-08 4.202854151E-02
2.960000000E+01 9.999988184E-01 1.999174700E-08 4.188655320E-02
2.970000000E+01 9.999988265E-01 1.972636736E-08 4.174552103E-02
2.980000000E+01 9.999988345E-01 1.946496682E-08 4.160543539E-02
2.990000000E+01 9.999988425E-01 1.920747478E-08 4.146628678E-02
3.000000000E+01 9.999988504E-01 1.895382210E-08 4.132806582E-02
3.010000000E+01 9.999988580E-01 1.881175687E-08 4.119076328E-02
3.020000000E+01 9.999988656E-01 1.868738196E-08 4.105437002E-02
3.030000000E+01 9.999988730E-01 1.856423645E-08 4.091887705E-02
3.040000000E+01 9.999988804E-01 1.844230419E-08 4.078427548E-02
3.050000000E+01 9.999988878E-01 1.832156930E-08 4.065055654E-02
3.060000000E+01 9.999988950E-01 1.820201615E-08 4.051771159E-02
3.070000000E+01 9.999989022E-01 1.808362937E-08 4.038573207E-02
3.080000000E+01 9.999989093E-01 1.796639383E-08 4.025460956E-02
3.090000000E+01 9.999989164E-01 1.785029466E-08 4.012433575E-02
3.100000000E+01 9.999989234E-01 1.773531721E-08 3.999490241E-02
3.110000000E+01 9.999989325E-01 1.647717616E-08 3.986630143E-02
3.120000000E+01 9.999989395E-01 1.627109532E-08 3.973852483E-02
3.130000000E+01 9.999989465E-01 1.606794641E-08 3.961156468E-02
3.140000000E+01 9.999989534E-01 1.586767996E-08 3.948541320E-02
3.150000000E+01 9.999989602E-01 1.567024750E-08 3.936006269E-02
3.160000000E+01 9.999989669E-01 1.547560148E-08 3.923550552E-02
3.170000000E+01 9.999989736E-01 1.528369531E-08 3.911173421E-02
3.180000000E+01 9.999989802E-01 1.509448332E-08 3.898874134E-02
3.190000000E+01 9.999989868E-01 1.490792070E-08 3.886651958E-02
3.200000000E+01 9.999989933E-01 1.472396353E-08 3.874506171E-02
3.210000000E+01 9.999989997E-01 1.455420420E-08 3.862436058E-02
3.220000000E+01 9.999990059E-01 1.446394579E-08 3.850440915E-02
3.230000000E+01 9.999990121E-01 1.437452439E-08 3.838520045E-02
3.240000000E+01 9.999990182E-01 1.428592969E-08 3.826672761E-02
3.250000000E+01 9.999990242E-01 1.419815153E-08 3.814898383E-02
3.260000000E+01 9.999990302E-01 1.411117990E-08 3.803196241E-02
3.270000000E+01 9.999990361E-01 1.402500496E-08 3.791565672E-02
