# 08/03/2022 
# Density retrieved from www.chemicool.com/densities.html 
# Includes the real (n) and complex (k) part of the  refractive index. 
# Element, Li  (Z = 3) 
# Nominal density, g cm-3 =  0.53 
#    E [keV]      n       k    Wavelength [nm] 
2.000000000E+00 9.999760856E-01 6.484208429E-08 6.199209873E-01
2.100000000E+00 9.999783222E-01 5.091976348E-08 5.904009403E-01
2.200000000E+00 9.999802573E-01 4.116584997E-08 5.635645339E-01
2.300000000E+00 9.999819429E-01 3.423875909E-08 5.390617281E-01
2.400000000E+00 9.999834203E-01 2.922215859E-08 5.166008227E-01
2.500000000E+00 9.999847253E-01 2.419075494E-08 4.959367898E-01
2.600000000E+00 9.999858792E-01 2.155608561E-08 4.768622979E-01
2.700000000E+00 9.999869105E-01 1.755164459E-08 4.592007313E-01
2.800000000E+00 9.999878292E-01 1.609048136E-08 4.428007052E-01
2.900000000E+00 9.999886579E-01 1.303542689E-08 4.275317154E-01
3.000000000E+00 9.999894016E-01 1.213419121E-08 4.132806582E-01
3.100000000E+00 9.999900774E-01 9.829473208E-09 3.999490241E-01
3.200000000E+00 9.999906879E-01 9.189921413E-09 3.874506171E-01
3.300000000E+00 9.999912460E-01 7.519180497E-09 3.757096893E-01
3.400000000E+00 9.999917536E-01 6.984355529E-09 3.646594043E-01
3.500000000E+00 9.999922197E-01 5.842905073E-09 3.542405642E-01
3.600000000E+00 9.999926463E-01 5.345097687E-09 3.444005485E-01
3.700000000E+00 9.999930395E-01 4.603146310E-09 3.350924256E-01
3.800000000E+00 9.999934016E-01 4.116016271E-09 3.262742038E-01
3.900000000E+00 9.999937356E-01 3.907644639E-09 3.179081986E-01
4.000000000E+00 9.999940459E-01 3.291101897E-09 3.099604936E-01
4.100000000E+00 9.999943330E-01 3.033490807E-09 3.024004816E-01
4.200000000E+00 9.999946002E-01 2.671018963E-09 2.952004701E-01
4.300000000E+00 9.999948488E-01 2.412451313E-09 2.883353429E-01
4.400000000E+00 9.999950803E-01 2.259927642E-09 2.817822670E-01
4.500000000E+00 9.999952970E-01 1.985840973E-09 2.755204388E-01
4.600000000E+00 9.999954995E-01 1.804849552E-09 2.695308640E-01
4.700000000E+00 9.999956891E-01 1.699346716E-09 2.637961648E-01
4.800000000E+00 9.999958671E-01 1.504869543E-09 2.583004114E-01
4.900000000E+00 9.999960343E-01 1.376401522E-09 2.530289744E-01
5.000000000E+00 9.999961914E-01 1.288250391E-09 2.479683949E-01
5.100000000E+00 9.999963393E-01 1.238226058E-09 2.431062695E-01
5.200000000E+00 9.999964791E-01 1.067128193E-09 2.384311490E-01
5.300000000E+00 9.999966108E-01 9.837047739E-10 2.339324480E-01
5.400000000E+00 9.999967352E-01 9.476086110E-10 2.296003657E-01
5.500000000E+00 9.999968530E-01 8.389384891E-10 2.254258136E-01
5.600000000E+00 9.999969645E-01 7.758830378E-10 2.214003526E-01
5.700000000E+00 9.999970701E-01 7.296969035E-10 2.175161359E-01
5.800000000E+00 9.999971703E-01 7.047518548E-10 2.137658577E-01
5.900000000E+00 9.999972656E-01 6.203023442E-10 2.101427076E-01
6.000000000E+00 9.999973560E-01 5.765653920E-10 2.066403291E-01
6.100000000E+00 9.999974420E-01 5.466477365E-10 2.032527827E-01
6.200000000E+00 9.999975239E-01 5.291561466E-10 1.999745120E-01
6.300000000E+00 9.999976020E-01 4.678311174E-10 1.968003134E-01
6.400000000E+00 9.999976764E-01 4.368964661E-10 1.937253085E-01
6.500000000E+00 9.999977474E-01 4.130664681E-10 1.907449192E-01
6.600000000E+00 9.999978151E-01 4.006441295E-10 1.878548446E-01
6.700000000E+00 9.999978799E-01 3.591686968E-10 1.850510410E-01
6.800000000E+00 9.999979419E-01 3.369193154E-10 1.823297021E-01
6.900000000E+00 9.999980011E-01 3.161306801E-10 1.796872427E-01
7.000000000E+00 9.999980578E-01 3.055832793E-10 1.771202821E-01
7.100000000E+00 9.999981122E-01 2.970359191E-10 1.746256302E-01
7.200000000E+00 9.999981643E-01 2.637348642E-10 1.722002742E-01
7.300000000E+00 9.999982143E-01 2.484437209E-10 1.698413664E-01
7.400000000E+00 9.999982623E-01 2.346055050E-10 1.675462128E-01
7.500000000E+00 9.999983083E-01 2.283910658E-10 1.653122633E-01
7.600000000E+00 9.999983525E-01 2.224203160E-10 1.631371019E-01
7.700000000E+00 9.999983951E-01 1.976399795E-10 1.610184383E-01
7.800000000E+00 9.999984360E-01 1.868718228E-10 1.589540993E-01
7.900000000E+00 9.999984754E-01 1.767235893E-10 1.569420221E-01
8.000000000E+00 9.999985132E-01 1.722221737E-10 1.549802468E-01
8.100000000E+00 9.999985497E-01 1.679960237E-10 1.530669104E-01
8.200000000E+00 9.999985849E-01 1.507876426E-10 1.512002408E-01
8.300000000E+00 9.999986188E-01 1.430783074E-10 1.493785512E-01
8.400000000E+00 9.999986515E-01 1.357864152E-10 1.476002351E-01
8.500000000E+00 9.999986831E-01 1.308938651E-10 1.458637617E-01
8.600000000E+00 9.999987135E-01 1.278675197E-10 1.441676715E-01
8.700000000E+00 9.999987429E-01 1.249449300E-10 1.425105718E-01
8.800000000E+00 9.999987714E-01 1.112819328E-10 1.408911335E-01
8.900000000E+00 9.999987988E-01 1.059561490E-10 1.393080870E-01
9.000000000E+00 9.999988254E-01 1.008999718E-10 1.377602194E-01
9.100000000E+00 9.999988511E-01 9.790507569E-11 1.362463708E-01
9.200000000E+00 9.999988759E-01 9.578827171E-11 1.347654320E-01
9.300000000E+00 9.999989000E-01 9.373938395E-11 1.333163414E-01
9.400000000E+00 9.999989233E-01 8.367421363E-11 1.318980824E-01
9.500000000E+00 9.999989458E-01 7.988835815E-11 1.305096815E-01
9.600000000E+00 9.999989677E-01 7.628275450E-11 1.291502057E-01
9.700000000E+00 9.999989889E-01 7.366405426E-11 1.278187603E-01
9.800000000E+00 9.999990094E-01 7.216837636E-11 1.265144872E-01
9.900000000E+00 9.999990293E-01 7.071779273E-11 1.252365631E-01
1.000000000E+01 9.999990486E-01 6.396050520E-11 1.239841975E-01
1.010000000E+01 9.999990674E-01 6.124226713E-11 1.227566311E-01
1.020000000E+01 9.999990856E-01 5.864583846E-11 1.215531348E-01
1.030000000E+01 9.999991033E-01 5.616489463E-11 1.203730072E-01
1.040000000E+01 9.999991204E-01 5.478418310E-11 1.192155745E-01
1.050000000E+01 9.999991371E-01 5.374564394E-11 1.180801881E-01
1.060000000E+01 9.999991533E-01 5.273635853E-11 1.169662240E-01
1.070000000E+01 9.999991691E-01 4.763289102E-11 1.158730817E-01
1.080000000E+01 9.999991844E-01 4.572781529E-11 1.148001828E-01
1.090000000E+01 9.999991993E-01 4.390281267E-11 1.137469701E-01
1.100000000E+01 9.999992138E-01 4.215398462E-11 1.127129068E-01
1.110000000E+01 9.999992279E-01 4.111430662E-11 1.116974752E-01
1.120000000E+01 9.999992416E-01 4.038340018E-11 1.107001763E-01
1.130000000E+01 9.999992550E-01 3.967181235E-11 1.097205287E-01
1.140000000E+01 9.999992680E-01 3.897886826E-11 1.087580679E-01
1.150000000E+01 9.999992807E-01 3.481191680E-11 1.078123456E-01
1.160000000E+01 9.999992930E-01 3.351899491E-11 1.068829288E-01
1.170000000E+01 9.999993051E-01 3.227668368E-11 1.059693995E-01
1.180000000E+01 9.999993168E-01 3.110339588E-11 1.050713538E-01
1.190000000E+01 9.999993282E-01 3.058284614E-11 1.041884012E-01
1.200000000E+01 9.999993394E-01 3.007525585E-11 1.033201645E-01
1.210000000E+01 9.999993503E-01 2.958019836E-11 1.024662789E-01
1.220000000E+01 9.999993609E-01 2.692802493E-11 1.016263914E-01
1.230000000E+01 9.999993712E-01 2.598433224E-11 1.008001605E-01
1.240000000E+01 9.999993813E-01 2.507551177E-11 9.998725601E-02
1.250000000E+01 9.999993912E-01 2.420006847E-11 9.918735797E-02
1.260000000E+01 9.999994008E-01 2.335658142E-11 9.840015671E-02
1.270000000E+01 9.999994102E-01 2.295554182E-11 9.762535233E-02
1.280000000E+01 9.999994194E-01 2.259826257E-11 9.686265426E-02
1.290000000E+01 9.999994284E-01 2.224925990E-11 9.611178098E-02
1.300000000E+01 9.999994371E-01 2.190828012E-11 9.537245958E-02
1.310000000E+01 9.999994457E-01 1.974999241E-11 9.464442554E-02
1.320000000E+01 9.999994541E-01 1.910313104E-11 9.392742232E-02
1.330000000E+01 9.999994622E-01 1.847858382E-11 9.322120110E-02
1.340000000E+01 9.999994702E-01 1.787545754E-11 9.252552049E-02
1.350000000E+01 9.999994781E-01 1.736723643E-11 9.184014627E-02
1.360000000E+01 9.999994857E-01 1.711277486E-11 9.116485107E-02
1.370000000E+01 9.999994932E-01 1.686386509E-11 9.049941420E-02
1.380000000E+01 9.999995005E-01 1.662034677E-11 8.984362135E-02
1.390000000E+01 9.999995077E-01 1.638206531E-11 8.919726436E-02
1.400000000E+01 9.999995147E-01 1.479200884E-11 8.856014104E-02
1.410000000E+01 9.999995215E-01 1.433868840E-11 8.793205493E-02
1.420000000E+01 9.999995283E-01 1.390001726E-11 8.731281511E-02
1.430000000E+01 9.999995348E-01 1.347544575E-11 8.670223598E-02
1.440000000E+01 9.999995413E-01 1.306444809E-11 8.610013712E-02
1.450000000E+01 9.999995476E-01 1.287011103E-11 8.550634307E-02
1.460000000E+01 9.999995538E-01 1.269441191E-11 8.492068319E-02
1.470000000E+01 9.999995598E-01 1.252228629E-11 8.434299147E-02
1.480000000E+01 9.999995657E-01 1.235363789E-11 8.377310639E-02
1.490000000E+01 9.999995715E-01 1.128219240E-11 8.321087078E-02
1.500000000E+01 9.999995772E-01 1.095817141E-11 8.265613164E-02
1.510000000E+01 9.999995828E-01 1.064399115E-11 8.210874004E-02
1.520000000E+01 9.999995883E-01 1.033930426E-11 8.156855096E-02
1.530000000E+01 9.999995937E-01 1.004377761E-11 8.103542318E-02
1.540000000E+01 9.999995989E-01 9.757091579E-12 8.050921913E-02
1.550000000E+01 9.999996041E-01 9.628890166E-12 7.998980481E-02
1.560000000E+01 9.999996091E-01 9.505838520E-12 7.947704965E-02
1.570000000E+01 9.999996141E-01 9.385130684E-12 7.897082641E-02
1.580000000E+01 9.999996190E-01 9.266707508E-12 7.847101105E-02
1.590000000E+01 9.999996237E-01 9.150511698E-12 7.797748268E-02
1.600000000E+01 9.999996284E-01 8.276083328E-12 7.749012341E-02
1.610000000E+01 9.999996330E-01 8.053504733E-12 7.700881830E-02
1.620000000E+01 9.999996376E-01 7.837238579E-12 7.653345522E-02
1.630000000E+01 9.999996420E-01 7.627076861E-12 7.606392482E-02
1.640000000E+01 9.999996463E-01 7.422819516E-12 7.560012040E-02
1.650000000E+01 9.999996506E-01 7.264198431E-12 7.514193785E-02
1.660000000E+01 9.999996548E-01 7.176941584E-12 7.468927558E-02
1.670000000E+01 9.999996589E-01 7.091247527E-12 7.424203441E-02
1.680000000E+01 9.999996630E-01 7.007079163E-12 7.380011753E-02
1.690000000E+01 9.999996670E-01 6.924400486E-12 7.336343045E-02
1.700000000E+01 9.999996709E-01 6.843176550E-12 7.293188086E-02
1.710000000E+01 9.999996747E-01 6.197092874E-12 7.250537863E-02
1.720000000E+01 9.999996785E-01 6.041116302E-12 7.208383573E-02
1.730000000E+01 9.999996822E-01 5.889282935E-12 7.166716616E-02
1.740000000E+01 9.999996858E-01 5.741464841E-12 7.125528590E-02
1.750000000E+01 9.999996894E-01 5.597538665E-12 7.084811283E-02
1.760000000E+01 9.999996929E-01 5.458230427E-12 7.044556674E-02
1.770000000E+01 9.999996964E-01 5.396729730E-12 7.004756919E-02
1.780000000E+01 9.999996998E-01 5.336262647E-12 6.965404352E-02
1.790000000E+01 9.999997031E-01 5.276806146E-12 6.926491478E-02
1.800000000E+01 9.999997064E-01 5.218337831E-12 6.888010970E-02
1.810000000E+01 9.999997097E-01 5.160835924E-12 6.849955661E-02
1.820000000E+01 9.999997128E-01 4.725552774E-12 6.812318542E-02
1.830000000E+01 9.999997160E-01 4.614117936E-12 6.775092757E-02
1.840000000E+01 9.999997191E-01 4.505464213E-12 6.738271601E-02
1.850000000E+01 9.999997221E-01 4.399510850E-12 6.701848511E-02
1.860000000E+01 9.999997251E-01 4.296179811E-12 6.665817068E-02
1.870000000E+01 9.999997280E-01 4.195395675E-12 6.630170987E-02
1.880000000E+01 9.999997309E-01 4.097085535E-12 6.594904120E-02
1.890000000E+01 9.999997337E-01 4.046442914E-12 6.560010448E-02
1.900000000E+01 9.999997365E-01 4.003960867E-12 6.525484077E-02
1.910000000E+01 9.999997393E-01 3.962144330E-12 6.491319239E-02
1.920000000E+01 9.999997420E-01 3.920979474E-12 6.457510284E-02
1.930000000E+01 9.999997446E-01 3.880452826E-12 6.424051682E-02
1.940000000E+01 9.999997473E-01 3.840551263E-12 6.390938013E-02
1.950000000E+01 9.999997499E-01 3.500417578E-12 6.358163972E-02
1.960000000E+01 9.999997524E-01 3.423123004E-12 6.325724360E-02
1.970000000E+01 9.999997549E-01 3.347632220E-12 6.293614084E-02
1.980000000E+01 9.999997574E-01 3.273896254E-12 6.261828154E-02
1.990000000E+01 9.999997598E-01 3.201867674E-12 6.230361681E-02
2.000000000E+01 9.999997622E-01 3.131500536E-12 6.199209873E-02
2.010000000E+01 9.999997646E-01 3.062750329E-12 6.168368033E-02
2.020000000E+01 9.999997669E-01 3.028428228E-12 6.137831557E-02
2.030000000E+01 9.999997692E-01 2.998664986E-12 6.107595934E-02
2.040000000E+01 9.999997714E-01 2.969338365E-12 6.077656738E-02
2.050000000E+01 9.999997737E-01 2.940439867E-12 6.048009632E-02
2.060000000E+01 9.999997759E-01 2.911961198E-12 6.018650362E-02
2.070000000E+01 9.999997780E-01 2.883894266E-12 5.989574756E-02
2.080000000E+01 9.999997802E-01 2.643569132E-12 5.960778724E-02
2.090000000E+01 9.999997823E-01 2.588916598E-12 5.932258252E-02
2.100000000E+01 9.999997843E-01 2.535460184E-12 5.904009403E-02
2.110000000E+01 9.999997864E-01 2.483169416E-12 5.876028316E-02
2.120000000E+01 9.999997884E-01 2.432014720E-12 5.848311201E-02
2.130000000E+01 9.999997904E-01 2.381967392E-12 5.820854341E-02
2.140000000E+01 9.999997923E-01 2.332999570E-12 5.793654087E-02
2.150000000E+01 9.999997942E-01 2.285369908E-12 5.766706859E-02
2.160000000E+01 9.999997961E-01 2.264258059E-12 5.740009142E-02
2.170000000E+01 9.999997980E-01 2.243437405E-12 5.713557487E-02
2.180000000E+01 9.999997999E-01 2.222902617E-12 5.687348507E-02
2.190000000E+01 9.999998017E-01 2.202648485E-12 5.661378879E-02
2.200000000E+01 9.999998035E-01 2.182669917E-12 5.635645339E-02
2.210000000E+01 9.999998053E-01 2.162961937E-12 5.610144681E-02
2.220000000E+01 9.999998070E-01 2.143519682E-12 5.584873759E-02
2.230000000E+01 9.999998087E-01 1.952681561E-12 5.559829482E-02
2.240000000E+01 9.999998104E-01 1.914903188E-12 5.535008815E-02
2.250000000E+01 9.999998121E-01 1.877897367E-12 5.510408776E-02
2.260000000E+01 9.999998138E-01 1.841645708E-12 5.486026436E-02
2.270000000E+01 9.999998154E-01 1.806130331E-12 5.461858919E-02
2.280000000E+01 9.999998170E-01 1.771333844E-12 5.437903397E-02
2.290000000E+01 9.999998186E-01 1.737239336E-12 5.414157094E-02
2.300000000E+01 9.999998202E-01 1.707244098E-12 5.390617281E-02
2.310000000E+01 9.999998218E-01 1.692494758E-12 5.367281275E-02
2.320000000E+01 9.999998233E-01 1.677935731E-12 5.344146442E-02
2.330000000E+01 9.999998248E-01 1.663563756E-12 5.321210191E-02
2.340000000E+01 9.999998263E-01 1.649375644E-12 5.298469977E-02
2.350000000E+01 9.999998278E-01 1.635368271E-12 5.275923296E-02
2.360000000E+01 9.999998292E-01 1.621538580E-12 5.253567689E-02
2.370000000E+01 9.999998307E-01 1.607883579E-12 5.231400737E-02
2.380000000E+01 9.999998321E-01 1.471399967E-12 5.209420061E-02
2.390000000E+01 9.999998335E-01 1.444786755E-12 5.187623325E-02
2.400000000E+01 9.999998349E-01 1.418683472E-12 5.166008227E-02
2.410000000E+01 9.999998362E-01 1.393078738E-12 5.144572509E-02
2.420000000E+01 9.999998376E-01 1.367961466E-12 5.123313945E-02
2.430000000E+01 9.999998389E-01 1.343320856E-12 5.102230348E-02
2.440000000E+01 9.999998402E-01 1.319146385E-12 5.081319568E-02
2.450000000E+01 9.999998415E-01 1.295427801E-12 5.060579488E-02
2.460000000E+01 9.999998428E-01 1.275872424E-12 5.040008027E-02
2.470000000E+01 9.999998441E-01 1.265562386E-12 5.019603136E-02
2.480000000E+01 9.999998454E-01 1.255376815E-12 4.999362801E-02
2.490000000E+01 9.999998466E-01 1.245313715E-12 4.979285038E-02
2.500000000E+01 9.999998478E-01 1.235371130E-12 4.959367898E-02
2.510000000E+01 9.999998490E-01 1.225547144E-12 4.939609460E-02
2.520000000E+01 9.999998502E-01 1.215839878E-12 4.920007836E-02
2.530000000E+01 9.999998514E-01 1.206247491E-12 4.900561164E-02
2.540000000E+01 9.999998526E-01 1.109644272E-12 4.881267616E-02
2.550000000E+01 9.999998537E-01 1.090913524E-12 4.862125391E-02
2.560000000E+01 9.999998549E-01 1.072518872E-12 4.843132713E-02
2.570000000E+01 9.999998560E-01 1.054453283E-12 4.824287839E-02
2.580000000E+01 9.999998571E-01 1.036709896E-12 4.805589049E-02
2.590000000E+01 9.999998582E-01 1.019282018E-12 4.787034651E-02
2.600000000E+01 9.999998593E-01 1.002163115E-12 4.768622979E-02
2.610000000E+01 9.999998604E-01 9.853468114E-13 4.750352393E-02
2.620000000E+01 9.999998614E-01 9.688268836E-13 4.732221277E-02
2.630000000E+01 9.999998625E-01 9.559378891E-13 4.714228040E-02
2.640000000E+01 9.999998635E-01 9.487096512E-13 4.696371116E-02
2.650000000E+01 9.999998646E-01 9.415630880E-13 4.678648961E-02
2.660000000E+01 9.999998656E-01 9.344969734E-13 4.661060055E-02
2.670000000E+01 9.999998666E-01 9.275101047E-13 4.643602901E-02
2.680000000E+01 9.999998676E-01 9.206013011E-13 4.626276025E-02
2.690000000E+01 9.999998686E-01 9.137694041E-13 4.609077972E-02
2.700000000E+01 9.999998695E-01 9.070132764E-13 4.592007313E-02
2.710000000E+01 9.999998705E-01 9.003318018E-13 4.575062637E-02
2.720000000E+01 9.999998714E-01 8.246681903E-13 4.558242554E-02
2.730000000E+01 9.999998724E-01 8.116052919E-13 4.541545694E-02
2.740000000E+01 9.999998733E-01 7.987617336E-13 4.524970710E-02
2.750000000E+01 9.999998742E-01 7.861332229E-13 4.508516271E-02
2.760000000E+01 9.999998751E-01 7.737155652E-13 4.492181067E-02
2.770000000E+01 9.999998760E-01 7.615046605E-13 4.475963807E-02
2.780000000E+01 9.999998769E-01 7.494965017E-13 4.459863218E-02
2.790000000E+01 9.999998778E-01 7.376871719E-13 4.443878045E-02
2.800000000E+01 9.999998787E-01 7.260728419E-13 4.428007052E-02
2.810000000E+01 9.999998795E-01 7.161409430E-13 4.412249020E-02
2.820000000E+01 9.999998804E-01 7.110709346E-13 4.396602747E-02
2.830000000E+01 9.999998812E-01 7.060545768E-13 4.381067048E-02
2.840000000E+01 9.999998821E-01 7.010911154E-13 4.365640756E-02
2.850000000E+01 9.999998829E-01 6.961798092E-13 4.350322718E-02
2.860000000E+01 9.999998837E-01 6.913199301E-13 4.335111799E-02
2.870000000E+01 9.999998845E-01 6.865107625E-13 4.320006880E-02
2.880000000E+01 9.999998853E-01 6.817516035E-13 4.305006856E-02
2.890000000E+01 9.999998861E-01 6.770417620E-13 4.290110639E-02
2.900000000E+01 9.999998869E-01 6.723805589E-13 4.275317154E-02
2.910000000E+01 9.999998877E-01 6.148651338E-13 4.260625342E-02
2.920000000E+01 9.999998885E-01 6.057268820E-13 4.246034160E-02
2.930000000E+01 9.999998892E-01 5.967322973E-13 4.231542575E-02
2.940000000E+01 9.999998900E-01 5.878787480E-13 4.217149573E-02
2.950000000E+01 9.999998907E-01 5.791636586E-13 4.202854151E-02
2.960000000E+01 9.999998914E-01 5.705845079E-13 4.188655320E-02
2.970000000E+01 9.999998922E-01 5.621388283E-13 4.174552103E-02
2.980000000E+01 9.999998929E-01 5.538242041E-13 4.160543539E-02
2.990000000E+01 9.999998936E-01 5.456382702E-13 4.146628678E-02
3.000000000E+01 9.999998943E-01 5.375787114E-13 4.132806582E-02
3.010000000E+01 9.999998950E-01 5.334377776E-13 4.119076328E-02
3.020000000E+01 9.999998957E-01 5.299109259E-13 4.105437002E-02
3.030000000E+01 9.999998964E-01 5.264189359E-13 4.091887705E-02
3.040000000E+01 9.999998971E-01 5.229613496E-13 4.078427548E-02
3.050000000E+01 9.999998978E-01 5.195377166E-13 4.065055654E-02
3.060000000E+01 9.999998984E-01 5.161475937E-13 4.051771159E-02
3.070000000E+01 9.999998991E-01 5.127905451E-13 4.038573207E-02
3.080000000E+01 9.999998997E-01 5.094661419E-13 4.025460956E-02
3.090000000E+01 9.999999004E-01 5.061739622E-13 4.012433575E-02
3.100000000E+01 9.999999010E-01 5.029135909E-13 3.999490241E-02
3.110000000E+01 9.999999017E-01 4.604284837E-13 3.986630143E-02
3.120000000E+01 9.999999023E-01 4.540295648E-13 3.973852483E-02
3.130000000E+01 9.999999029E-01 4.477248090E-13 3.961156468E-02
3.140000000E+01 9.999999035E-01 4.415126013E-13 3.948541320E-02
3.150000000E+01 9.999999041E-01 4.353913587E-13 3.936006269E-02
3.160000000E+01 9.999999048E-01 4.293595299E-13 3.923550552E-02
3.170000000E+01 9.999999054E-01 4.234155940E-13 3.911173421E-02
3.180000000E+01 9.999999059E-01 4.175580605E-13 3.898874134E-02
3.190000000E+01 9.999999065E-01 4.117854679E-13 3.886651958E-02
3.200000000E+01 9.999999071E-01 4.060963838E-13 3.874506171E-02
3.210000000E+01 9.999999077E-01 4.008885776E-13 3.862436058E-02
3.220000000E+01 9.999999083E-01 3.984024529E-13 3.850440915E-02
3.230000000E+01 9.999999088E-01 3.959393833E-13 3.838520045E-02
3.240000000E+01 9.999999094E-01 3.934990848E-13 3.826672761E-02
3.250000000E+01 9.999999100E-01 3.910812774E-13 3.814898383E-02
3.260000000E+01 9.999999105E-01 3.886856856E-13 3.803196241E-02
3.270000000E+01 9.999999111E-01 3.863120381E-13 3.791565672E-02
