# 08/03/2022 
# Density retrieved from www.chemicool.com/densities.html 
# Includes the real (n) and complex (k) part of the  refractive index. 
# Element, N  (Z = 7) 
# Nominal density, g cm-3 =  0.0012506 
#    E [keV]      n       k    Wavelength [nm] 
2.000000000E+00 9.999999328E-01 2.910428335E-09 6.199209873E-01
2.100000000E+00 9.999999392E-01 2.324542402E-09 5.904009403E-01
2.200000000E+00 9.999999447E-01 1.905616442E-09 5.635645339E-01
2.300000000E+00 9.999999495E-01 1.602695766E-09 5.390617281E-01
2.400000000E+00 9.999999537E-01 1.380135321E-09 5.166008227E-01
2.500000000E+00 9.999999574E-01 1.156820462E-09 4.959367898E-01
2.600000000E+00 9.999999606E-01 1.035536472E-09 4.768622979E-01
2.700000000E+00 9.999999635E-01 8.561893478E-10 4.592007313E-01
2.800000000E+00 9.999999661E-01 7.863108893E-10 4.428007052E-01
2.900000000E+00 9.999999685E-01 6.476928628E-10 4.275317154E-01
3.000000000E+00 9.999999705E-01 6.032050519E-10 4.132806582E-01
3.100000000E+00 9.999999724E-01 4.965191418E-10 3.999490241E-01
3.200000000E+00 9.999999741E-01 4.644200405E-10 3.874506171E-01
3.300000000E+00 9.999999757E-01 3.854998219E-10 3.757096893E-01
3.400000000E+00 9.999999771E-01 3.586389281E-10 3.646594043E-01
3.500000000E+00 9.999999785E-01 3.037718422E-10 3.542405642E-01
3.600000000E+00 9.999999796E-01 2.788945250E-10 3.444005485E-01
3.700000000E+00 9.999999807E-01 2.424996010E-10 3.350924256E-01
3.800000000E+00 9.999999818E-01 2.182204173E-10 3.262742038E-01
3.900000000E+00 9.999999827E-01 2.071730984E-10 3.179081986E-01
4.000000000E+00 9.999999836E-01 1.766734846E-10 3.099604936E-01
4.100000000E+00 9.999999843E-01 1.634216619E-10 3.024004816E-01
4.200000000E+00 9.999999851E-01 1.450439808E-10 2.952004701E-01
4.300000000E+00 9.999999858E-01 1.317717855E-10 2.883353429E-01
4.400000000E+00 9.999999864E-01 1.237045300E-10 2.817822670E-01
4.500000000E+00 9.999999870E-01 1.096328138E-10 2.755204388E-01
4.600000000E+00 9.999999876E-01 1.001950041E-10 2.695308640E-01
4.700000000E+00 9.999999881E-01 9.451829470E-11 2.637961648E-01
4.800000000E+00 9.999999886E-01 8.437579476E-11 2.583004114E-01
4.900000000E+00 9.999999891E-01 7.756994336E-11 2.530289744E-01
5.000000000E+00 9.999999895E-01 7.280917691E-11 2.479683949E-01
5.100000000E+00 9.999999899E-01 6.998190783E-11 2.431062695E-01
5.200000000E+00 9.999999903E-01 6.099450690E-11 2.384311490E-01
5.300000000E+00 9.999999907E-01 5.649388576E-11 2.339324480E-01
5.400000000E+00 9.999999910E-01 5.442089338E-11 2.296003657E-01
5.500000000E+00 9.999999913E-01 4.859664041E-11 2.254258136E-01
5.600000000E+00 9.999999917E-01 4.514714500E-11 2.214003526E-01
5.700000000E+00 9.999999919E-01 4.258156943E-11 2.175161359E-01
5.800000000E+00 9.999999922E-01 4.112589746E-11 2.137658577E-01
5.900000000E+00 9.999999925E-01 3.654333993E-11 2.101427076E-01
6.000000000E+00 9.999999927E-01 3.411174779E-11 2.066403291E-01
6.100000000E+00 9.999999930E-01 3.241424727E-11 2.032527827E-01
6.200000000E+00 9.999999932E-01 3.137705882E-11 1.999745120E-01
6.300000000E+00 9.999999934E-01 2.799846231E-11 1.968003134E-01
6.400000000E+00 9.999999936E-01 2.625097880E-11 1.937253085E-01
6.500000000E+00 9.999999938E-01 2.488797081E-11 1.907449192E-01
6.600000000E+00 9.999999940E-01 2.413950337E-11 1.878548446E-01
6.700000000E+00 9.999999942E-01 2.181430434E-11 1.850510410E-01
6.800000000E+00 9.999999944E-01 2.053771191E-11 1.823297021E-01
6.900000000E+00 9.999999945E-01 1.934343366E-11 1.796872427E-01
7.000000000E+00 9.999999947E-01 1.870880894E-11 1.771202821E-01
7.100000000E+00 9.999999948E-01 1.818551157E-11 1.746256302E-01
7.200000000E+00 9.999999950E-01 1.629648479E-11 1.722002742E-01
7.300000000E+00 9.999999951E-01 1.540464418E-11 1.698413664E-01
7.400000000E+00 9.999999952E-01 1.459497719E-11 1.675462128E-01
7.500000000E+00 9.999999954E-01 1.420837246E-11 1.653122633E-01
7.600000000E+00 9.999999955E-01 1.383692782E-11 1.631371019E-01
7.700000000E+00 9.999999956E-01 1.238288491E-11 1.610184383E-01
7.800000000E+00 9.999999957E-01 1.173712268E-11 1.589540993E-01
7.900000000E+00 9.999999958E-01 1.112803345E-11 1.569420221E-01
8.000000000E+00 9.999999959E-01 1.084517994E-11 1.549802468E-01
8.100000000E+00 9.999999960E-01 1.057905069E-11 1.530669104E-01
8.200000000E+00 9.999999961E-01 9.548224988E-12 1.512002408E-01
8.300000000E+00 9.999999962E-01 9.077965050E-12 1.493785512E-01
8.400000000E+00 9.999999963E-01 8.632874232E-12 1.476002351E-01
8.500000000E+00 9.999999964E-01 8.329761084E-12 1.458637617E-01
8.600000000E+00 9.999999965E-01 8.137171962E-12 1.441676715E-01
8.700000000E+00 9.999999966E-01 7.951185604E-12 1.425105718E-01
8.800000000E+00 9.999999966E-01 7.123924835E-12 1.408911335E-01
8.900000000E+00 9.999999967E-01 6.795119780E-12 1.393080870E-01
9.000000000E+00 9.999999968E-01 6.482774056E-12 1.377602194E-01
9.100000000E+00 9.999999969E-01 6.293911611E-12 1.362463708E-01
9.200000000E+00 9.999999969E-01 6.157831055E-12 1.347654320E-01
9.300000000E+00 9.999999970E-01 6.026116551E-12 1.333163414E-01
9.400000000E+00 9.999999971E-01 5.406625936E-12 1.318980824E-01
9.500000000E+00 9.999999971E-01 5.169606367E-12 1.305096815E-01
9.600000000E+00 9.999999972E-01 4.943763474E-12 1.291502057E-01
9.700000000E+00 9.999999972E-01 4.778194492E-12 1.278187603E-01
9.800000000E+00 9.999999973E-01 4.681177840E-12 1.265144872E-01
9.900000000E+00 9.999999973E-01 4.587086213E-12 1.252365631E-01
1.000000000E+01 9.999999974E-01 4.167038440E-12 1.239841975E-01
1.010000000E+01 9.999999974E-01 3.995337548E-12 1.227566311E-01
1.020000000E+01 9.999999975E-01 3.831258435E-12 1.215531348E-01
1.030000000E+01 9.999999975E-01 3.674407178E-12 1.203730072E-01
1.040000000E+01 9.999999976E-01 3.585292784E-12 1.192155745E-01
1.050000000E+01 9.999999976E-01 3.517326690E-12 1.180801881E-01
1.060000000E+01 9.999999977E-01 3.451275076E-12 1.169662240E-01
1.070000000E+01 9.999999977E-01 3.131406378E-12 1.158730817E-01
1.080000000E+01 9.999999978E-01 3.009988932E-12 1.148001828E-01
1.090000000E+01 9.999999978E-01 2.893627008E-12 1.137469701E-01
1.100000000E+01 9.999999978E-01 2.782075585E-12 1.127129068E-01
1.110000000E+01 9.999999979E-01 2.714587532E-12 1.116974752E-01
1.120000000E+01 9.999999979E-01 2.666329160E-12 1.107001763E-01
1.130000000E+01 9.999999980E-01 2.619346306E-12 1.097205287E-01
1.140000000E+01 9.999999980E-01 2.573594413E-12 1.087580679E-01
1.150000000E+01 9.999999980E-01 2.310583408E-12 1.078123456E-01
1.160000000E+01 9.999999981E-01 2.227421762E-12 1.068829288E-01
1.170000000E+01 9.999999981E-01 2.147484377E-12 1.059693995E-01
1.180000000E+01 9.999999981E-01 2.071921124E-12 1.050713538E-01
1.190000000E+01 9.999999982E-01 2.037245232E-12 1.041884012E-01
1.200000000E+01 9.999999982E-01 2.003432620E-12 1.033201645E-01
1.210000000E+01 9.999999982E-01 1.970454869E-12 1.024662789E-01
1.220000000E+01 9.999999983E-01 1.801310711E-12 1.016263914E-01
1.230000000E+01 9.999999983E-01 1.740087212E-12 1.008001605E-01
1.240000000E+01 9.999999983E-01 1.681105078E-12 9.998725601E-02
1.250000000E+01 9.999999983E-01 1.624268650E-12 9.918735797E-02
1.260000000E+01 9.999999984E-01 1.569486999E-12 9.840015671E-02
1.270000000E+01 9.999999984E-01 1.542678938E-12 9.762535233E-02
1.280000000E+01 9.999999984E-01 1.518668737E-12 9.686265426E-02
1.290000000E+01 9.999999984E-01 1.495214746E-12 9.611178098E-02
1.300000000E+01 9.999999985E-01 1.472299916E-12 9.537245958E-02
1.310000000E+01 9.999999985E-01 1.333653007E-12 9.464442554E-02
1.320000000E+01 9.999999985E-01 1.291307756E-12 9.392742232E-02
1.330000000E+01 9.999999985E-01 1.250409523E-12 9.322120110E-02
1.340000000E+01 9.999999986E-01 1.210900653E-12 9.252552049E-02
1.350000000E+01 9.999999986E-01 1.177461224E-12 9.184014627E-02
1.360000000E+01 9.999999986E-01 1.160209278E-12 9.116485107E-02
1.370000000E+01 9.999999986E-01 1.143333732E-12 9.049941420E-02
1.380000000E+01 9.999999986E-01 1.126823714E-12 8.984362135E-02
1.390000000E+01 9.999999987E-01 1.110668744E-12 8.919726436E-02
1.400000000E+01 9.999999987E-01 1.007654315E-12 8.856014104E-02
1.410000000E+01 9.999999987E-01 9.777143751E-13 8.793205493E-02
1.420000000E+01 9.999999987E-01 9.487328886E-13 8.731281511E-02
1.430000000E+01 9.999999987E-01 9.206740570E-13 8.670223598E-02
1.440000000E+01 9.999999987E-01 8.935036321E-13 8.610013712E-02
1.450000000E+01 9.999999988E-01 8.802733829E-13 8.550634307E-02
1.460000000E+01 9.999999988E-01 8.682561397E-13 8.492068319E-02
1.470000000E+01 9.999999988E-01 8.564833113E-13 8.434299147E-02
1.480000000E+01 9.999999988E-01 8.449483142E-13 8.377310639E-02
1.490000000E+01 9.999999988E-01 7.748890899E-13 8.321087078E-02
1.500000000E+01 9.999999988E-01 7.533036840E-13 8.265613164E-02
1.510000000E+01 9.999999989E-01 7.323677499E-13 8.210874004E-02
1.520000000E+01 9.999999989E-01 7.120584669E-13 8.156855096E-02
1.530000000E+01 9.999999989E-01 6.923539447E-13 8.103542318E-02
1.540000000E+01 9.999999989E-01 6.732331802E-13 8.050921913E-02
1.550000000E+01 9.999999989E-01 6.643986368E-13 7.998980481E-02
1.560000000E+01 9.999999989E-01 6.559080066E-13 7.947704965E-02
1.570000000E+01 9.999999989E-01 6.475791005E-13 7.897082641E-02
1.580000000E+01 9.999999990E-01 6.394078372E-13 7.847101105E-02
1.590000000E+01 9.999999990E-01 6.313902634E-13 7.797748268E-02
1.600000000E+01 9.999999990E-01 5.737914709E-13 7.749012341E-02
1.610000000E+01 9.999999990E-01 5.588318174E-13 7.700881830E-02
1.620000000E+01 9.999999990E-01 5.442924394E-13 7.653345522E-02
1.630000000E+01 9.999999990E-01 5.301595515E-13 7.606392482E-02
1.640000000E+01 9.999999990E-01 5.164198929E-13 7.560012040E-02
1.650000000E+01 9.999999990E-01 5.056717909E-13 7.514193785E-02
1.660000000E+01 9.999999991E-01 4.995977104E-13 7.468927558E-02
1.670000000E+01 9.999999991E-01 4.936324180E-13 7.424203441E-02
1.680000000E+01 9.999999991E-01 4.877733314E-13 7.380011753E-02
1.690000000E+01 9.999999991E-01 4.820179443E-13 7.336343045E-02
1.700000000E+01 9.999999991E-01 4.763638238E-13 7.293188086E-02
1.710000000E+01 9.999999991E-01 4.334393271E-13 7.250537863E-02
1.720000000E+01 9.999999991E-01 4.228623932E-13 7.208383573E-02
1.730000000E+01 9.999999991E-01 4.125637819E-13 7.166716616E-02
1.740000000E+01 9.999999991E-01 4.025349381E-13 7.125528590E-02
1.750000000E+01 9.999999992E-01 3.927676124E-13 7.084811283E-02
1.760000000E+01 9.999999992E-01 3.833096091E-13 7.044556674E-02
1.770000000E+01 9.999999992E-01 3.789906620E-13 7.004756919E-02
1.780000000E+01 9.999999992E-01 3.747443015E-13 6.965404352E-02
1.790000000E+01 9.999999992E-01 3.705689102E-13 6.926491478E-02
1.800000000E+01 9.999999992E-01 3.664629151E-13 6.888010970E-02
1.810000000E+01 9.999999992E-01 3.624247871E-13 6.849955661E-02
1.820000000E+01 9.999999992E-01 3.332373867E-13 6.812318542E-02
1.830000000E+01 9.999999992E-01 3.256152151E-13 6.775092757E-02
1.840000000E+01 9.999999992E-01 3.181815085E-13 6.738271601E-02
1.850000000E+01 9.999999992E-01 3.109308190E-13 6.701848511E-02
1.860000000E+01 9.999999992E-01 3.038578818E-13 6.665817068E-02
1.870000000E+01 9.999999993E-01 2.969576079E-13 6.630170987E-02
1.880000000E+01 9.999999993E-01 2.902250777E-13 6.594904120E-02
1.890000000E+01 9.999999993E-01 2.866692172E-13 6.560010448E-02
1.900000000E+01 9.999999993E-01 2.836595875E-13 6.525484077E-02
1.910000000E+01 9.999999993E-01 2.806971056E-13 6.491319239E-02
1.920000000E+01 9.999999993E-01 2.777807918E-13 6.457510284E-02
1.930000000E+01 9.999999993E-01 2.749096918E-13 6.424051682E-02
1.940000000E+01 9.999999993E-01 2.720828757E-13 6.390938013E-02
1.950000000E+01 9.999999993E-01 2.490967022E-13 6.358163972E-02
1.960000000E+01 9.999999993E-01 2.437632914E-13 6.325724360E-02
1.970000000E+01 9.999999993E-01 2.385531807E-13 6.293614084E-02
1.980000000E+01 9.999999993E-01 2.334630375E-13 6.261828154E-02
1.990000000E+01 9.999999993E-01 2.284896342E-13 6.230361681E-02
2.000000000E+01 9.999999994E-01 2.236298439E-13 6.199209873E-02
2.010000000E+01 9.999999994E-01 2.188806370E-13 6.168368033E-02
2.020000000E+01 9.999999994E-01 2.164453569E-13 6.137831557E-02
2.030000000E+01 9.999999994E-01 2.143181427E-13 6.107595934E-02
2.040000000E+01 9.999999994E-01 2.122221344E-13 6.077656738E-02
2.050000000E+01 9.999999994E-01 2.101567244E-13 6.048009632E-02
2.060000000E+01 9.999999994E-01 2.081213202E-13 6.018650362E-02
2.070000000E+01 9.999999994E-01 2.061153433E-13 5.989574756E-02
2.080000000E+01 9.999999994E-01 1.897308233E-13 5.960778724E-02
2.090000000E+01 9.999999994E-01 1.859267063E-13 5.932258252E-02
2.100000000E+01 9.999999994E-01 1.822050708E-13 5.904009403E-02
2.110000000E+01 9.999999994E-01 1.785638248E-13 5.876028316E-02
2.120000000E+01 9.999999994E-01 1.750009381E-13 5.848311201E-02
2.130000000E+01 9.999999994E-01 1.715144400E-13 5.820854341E-02
2.140000000E+01 9.999999994E-01 1.681024173E-13 5.793654087E-02
2.150000000E+01 9.999999994E-01 1.647823684E-13 5.766706859E-02
2.160000000E+01 9.999999994E-01 1.632601376E-13 5.740009142E-02
2.170000000E+01 9.999999994E-01 1.617589030E-13 5.713557487E-02
2.180000000E+01 9.999999995E-01 1.602782801E-13 5.687348507E-02
2.190000000E+01 9.999999995E-01 1.588178933E-13 5.661378879E-02
2.200000000E+01 9.999999995E-01 1.573773757E-13 5.635645339E-02
2.210000000E+01 9.999999995E-01 1.559563682E-13 5.610144681E-02
2.220000000E+01 9.999999995E-01 1.545545204E-13 5.584873759E-02
2.230000000E+01 9.999999995E-01 1.414396649E-13 5.559829482E-02
2.240000000E+01 9.999999995E-01 1.387865859E-13 5.535008815E-02
2.250000000E+01 9.999999995E-01 1.361872530E-13 5.510408776E-02
2.260000000E+01 9.999999995E-01 1.336403927E-13 5.486026436E-02
2.270000000E+01 9.999999995E-01 1.311447664E-13 5.461858919E-02
2.280000000E+01 9.999999995E-01 1.286991698E-13 5.437903397E-02
2.290000000E+01 9.999999995E-01 1.263024312E-13 5.414157094E-02
2.300000000E+01 9.999999995E-01 1.241867220E-13 5.390617281E-02
2.310000000E+01 9.999999995E-01 1.231138396E-13 5.367281275E-02
2.320000000E+01 9.999999995E-01 1.220548007E-13 5.344146442E-02
2.330000000E+01 9.999999995E-01 1.210093683E-13 5.321210191E-02
2.340000000E+01 9.999999995E-01 1.199773101E-13 5.298469977E-02
2.350000000E+01 9.999999995E-01 1.189583992E-13 5.275923296E-02
2.360000000E+01 9.999999995E-01 1.179524130E-13 5.253567689E-02
2.370000000E+01 9.999999995E-01 1.169591339E-13 5.231400737E-02
2.380000000E+01 9.999999995E-01 1.074977735E-13 5.209420061E-02
2.390000000E+01 9.999999995E-01 1.056123497E-13 5.187623325E-02
2.400000000E+01 9.999999995E-01 1.037627143E-13 5.166008227E-02
2.410000000E+01 9.999999996E-01 1.019480721E-13 5.144572509E-02
2.420000000E+01 9.999999996E-01 1.001676487E-13 5.123313945E-02
2.430000000E+01 9.999999996E-01 9.842068937E-14 5.102230348E-02
2.440000000E+01 9.999999996E-01 9.670645874E-14 5.081319568E-02
2.450000000E+01 9.999999996E-01 9.502424034E-14 5.060579488E-02
2.460000000E+01 9.999999996E-01 9.362963544E-14 5.040008027E-02
2.470000000E+01 9.999999996E-01 9.287303542E-14 5.019603136E-02
2.480000000E+01 9.999999996E-01 9.212556936E-14 4.999362801E-02
2.490000000E+01 9.999999996E-01 9.138709082E-14 4.979285038E-02
2.500000000E+01 9.999999996E-01 9.065745629E-14 4.959367898E-02
2.510000000E+01 9.999999996E-01 8.993652511E-14 4.939609460E-02
2.520000000E+01 9.999999996E-01 8.922415939E-14 4.920007836E-02
2.530000000E+01 9.999999996E-01 8.852022400E-14 4.900561164E-02
2.540000000E+01 9.999999996E-01 8.170278832E-14 4.881267616E-02
2.550000000E+01 9.999999996E-01 8.035744207E-14 4.862125391E-02
2.560000000E+01 9.999999996E-01 7.903605346E-14 4.843132713E-02
2.570000000E+01 9.999999996E-01 7.773812312E-14 4.824287839E-02
2.580000000E+01 9.999999996E-01 7.646316376E-14 4.805589049E-02
2.590000000E+01 9.999999996E-01 7.521069987E-14 4.787034651E-02
2.600000000E+01 9.999999996E-01 7.398026741E-14 4.768622979E-02
2.610000000E+01 9.999999996E-01 7.277141344E-14 4.750352393E-02
2.620000000E+01 9.999999996E-01 7.158369588E-14 4.732221277E-02
2.630000000E+01 9.999999996E-01 7.065141408E-14 4.714228040E-02
2.640000000E+01 9.999999996E-01 7.011718980E-14 4.696371116E-02
2.650000000E+01 9.999999996E-01 6.958900193E-14 4.678648961E-02
2.660000000E+01 9.999999996E-01 6.906675986E-14 4.661060055E-02
2.670000000E+01 9.999999996E-01 6.855037468E-14 4.643602901E-02
2.680000000E+01 9.999999996E-01 6.803975914E-14 4.626276025E-02
2.690000000E+01 9.999999996E-01 6.753482761E-14 4.609077972E-02
2.700000000E+01 9.999999996E-01 6.703549603E-14 4.592007313E-02
2.710000000E+01 9.999999996E-01 6.654168190E-14 4.575062637E-02
2.720000000E+01 9.999999996E-01 6.109081823E-14 4.558242554E-02
2.730000000E+01 9.999999997E-01 6.013872048E-14 4.541545694E-02
2.740000000E+01 9.999999997E-01 5.920253109E-14 4.524970710E-02
2.750000000E+01 9.999999997E-01 5.828193948E-14 4.508516271E-02
2.760000000E+01 9.999999997E-01 5.737664212E-14 4.492181067E-02
2.770000000E+01 9.999999997E-01 5.648634234E-14 4.475963807E-02
2.780000000E+01 9.999999997E-01 5.561075017E-14 4.459863218E-02
2.790000000E+01 9.999999997E-01 5.474958216E-14 4.443878045E-02
2.800000000E+01 9.999999997E-01 5.390256120E-14 4.428007052E-02
2.810000000E+01 9.999999997E-01 5.317657529E-14 4.412249020E-02
2.820000000E+01 9.999999997E-01 5.280010515E-14 4.396602747E-02
2.830000000E+01 9.999999997E-01 5.242761880E-14 4.381067048E-02
2.840000000E+01 9.999999997E-01 5.205906023E-14 4.365640756E-02
2.850000000E+01 9.999999997E-01 5.169437442E-14 4.350322718E-02
2.860000000E+01 9.999999997E-01 5.133350728E-14 4.335111799E-02
2.870000000E+01 9.999999997E-01 5.097640571E-14 4.320006880E-02
2.880000000E+01 9.999999997E-01 5.062301748E-14 4.305006856E-02
2.890000000E+01 9.999999997E-01 5.027329129E-14 4.290110639E-02
2.900000000E+01 9.999999997E-01 4.992717672E-14 4.275317154E-02
2.910000000E+01 9.999999997E-01 4.574874965E-14 4.260625342E-02
2.920000000E+01 9.999999997E-01 4.507817597E-14 4.246034160E-02
2.930000000E+01 9.999999997E-01 4.441810088E-14 4.231542575E-02
2.940000000E+01 9.999999997E-01 4.376833247E-14 4.217149573E-02
2.950000000E+01 9.999999997E-01 4.312868288E-14 4.202854151E-02
2.960000000E+01 9.999999997E-01 4.249896825E-14 4.188655320E-02
2.970000000E+01 9.999999997E-01 4.187900859E-14 4.174552103E-02
2.980000000E+01 9.999999997E-01 4.126862772E-14 4.160543539E-02
2.990000000E+01 9.999999997E-01 4.066765313E-14 4.146628678E-02
3.000000000E+01 9.999999997E-01 4.007591595E-14 4.132806582E-02
3.010000000E+01 9.999999997E-01 3.976838668E-14 4.119076328E-02
3.020000000E+01 9.999999997E-01 3.950545592E-14 4.105437002E-02
3.030000000E+01 9.999999997E-01 3.924512413E-14 4.091887705E-02
3.040000000E+01 9.999999997E-01 3.898735718E-14 4.078427548E-02
3.050000000E+01 9.999999997E-01 3.873212149E-14 4.065055654E-02
3.060000000E+01 9.999999997E-01 3.847938401E-14 4.051771159E-02
3.070000000E+01 9.999999997E-01 3.822911226E-14 4.038573207E-02
3.080000000E+01 9.999999997E-01 3.798127426E-14 4.025460956E-02
3.090000000E+01 9.999999997E-01 3.773583856E-14 4.012433575E-02
3.100000000E+01 9.999999997E-01 3.749277421E-14 3.999490241E-02
3.110000000E+01 9.999999997E-01 3.439449074E-14 3.986630143E-02
3.120000000E+01 9.999999997E-01 3.392307276E-14 3.973852483E-02
3.130000000E+01 9.999999997E-01 3.345856299E-14 3.961156468E-02
3.140000000E+01 9.999999997E-01 3.300084317E-14 3.948541320E-02
3.150000000E+01 9.999999997E-01 3.254979740E-14 3.936006269E-02
3.160000000E+01 9.999999997E-01 3.210531209E-14 3.923550552E-02
3.170000000E+01 9.999999997E-01 3.166727588E-14 3.911173421E-02
3.180000000E+01 9.999999997E-01 3.123557963E-14 3.898874134E-02
3.190000000E+01 9.999999997E-01 3.081011633E-14 3.886651958E-02
3.200000000E+01 9.999999997E-01 3.039078107E-14 3.874506171E-02
3.210000000E+01 9.999999997E-01 3.000652796E-14 3.862436058E-02
3.220000000E+01 9.999999997E-01 2.982044141E-14 3.850440915E-02
3.230000000E+01 9.999999998E-01 2.963608055E-14 3.838520045E-02
3.240000000E+01 9.999999998E-01 2.945342409E-14 3.826672761E-02
3.250000000E+01 9.999999998E-01 2.927245110E-14 3.814898383E-02
3.260000000E+01 9.999999998E-01 2.909314095E-14 3.803196241E-02
3.270000000E+01 9.999999998E-01 2.891547333E-14 3.791565672E-02
