# 08/03/2022 
# Density retrieved from www.chemicool.com/densities.html 
# Includes the real (n) and complex (k) part of the  refractive index. 
# Element, Nb  (Z = 41) 
# Nominal density, g cm-3 =  8.57 
#    E [keV]      n       k    Wavelength [nm] 
2.000000000E+00 9.996872050E-01 3.559563360E-05 6.199209873E-01
2.100000000E+00 9.997257663E-01 2.933190856E-05 5.904009403E-01
2.200000000E+00 9.997634993E-01 2.469702832E-05 5.635645339E-01
2.300000000E+00 9.998044162E-01 2.122328473E-05 5.390617281E-01
2.400000000E+00 9.998413928E-01 7.361639459E-05 5.166008227E-01
2.500000000E+00 9.998299884E-01 8.780220153E-05 4.959367898E-01
2.600000000E+00 9.998245391E-01 7.588186120E-05 4.768622979E-01
2.700000000E+00 9.998379321E-01 6.638237477E-05 4.592007313E-01
2.800000000E+00 9.998367109E-01 6.888669415E-05 4.428007052E-01
2.900000000E+00 9.998374259E-01 5.959213152E-05 4.275317154E-01
3.000000000E+00 9.998477767E-01 5.554843079E-05 4.132806582E-01
3.100000000E+00 9.998504651E-01 4.723638547E-05 3.999490241E-01
3.200000000E+00 9.998595068E-01 4.422167214E-05 3.874506171E-01
3.300000000E+00 9.998641332E-01 3.772993614E-05 3.757096893E-01
3.400000000E+00 9.998716761E-01 3.520324300E-05 3.646594043E-01
3.500000000E+00 9.998769342E-01 3.051760259E-05 3.542405642E-01
3.600000000E+00 9.998832082E-01 2.820364411E-05 3.444005485E-01
3.700000000E+00 9.998884610E-01 2.497045891E-05 3.350924256E-01
3.800000000E+00 9.998937249E-01 2.273477872E-05 3.262742038E-01
3.900000000E+00 9.998991050E-01 2.158383989E-05 3.179081986E-01
4.000000000E+00 9.999033457E-01 1.884651479E-05 3.099604936E-01
4.100000000E+00 9.999078299E-01 1.754760194E-05 3.024004816E-01
4.200000000E+00 9.999118505E-01 1.581924242E-05 2.952004701E-01
4.300000000E+00 9.999157075E-01 1.453422957E-05 2.883353429E-01
4.400000000E+00 9.999194320E-01 1.369987096E-05 2.817822670E-01
4.500000000E+00 9.999227644E-01 1.235108181E-05 2.755204388E-01
4.600000000E+00 9.999259718E-01 1.141150959E-05 2.695308640E-01
4.700000000E+00 9.999290532E-01 1.080496416E-05 2.637961648E-01
4.800000000E+00 9.999317332E-01 9.785358287E-06 2.583004114E-01
4.900000000E+00 9.999343578E-01 9.077758336E-06 2.530289744E-01
5.000000000E+00 9.999368909E-01 8.563019965E-06 2.479683949E-01
5.100000000E+00 9.999393415E-01 8.230507464E-06 2.431062695E-01
5.200000000E+00 9.999415789E-01 7.298648019E-06 2.384311490E-01
5.300000000E+00 9.999437370E-01 6.808615331E-06 2.339324480E-01
5.400000000E+00 9.999458015E-01 6.558779309E-06 2.296003657E-01
5.500000000E+00 9.999477090E-01 5.931101142E-06 2.254258136E-01
5.600000000E+00 9.999495395E-01 5.545982643E-06 2.214003526E-01
5.700000000E+00 9.999512828E-01 5.252265529E-06 2.175161359E-01
5.800000000E+00 9.999529482E-01 5.072714240E-06 2.137658577E-01
5.900000000E+00 9.999545399E-01 4.570273905E-06 2.101427076E-01
6.000000000E+00 9.999560464E-01 4.292282517E-06 2.066403291E-01
6.100000000E+00 9.999574776E-01 4.091690575E-06 2.032527827E-01
6.200000000E+00 9.999588382E-01 3.960764992E-06 1.999745120E-01
6.300000000E+00 9.999601582E-01 3.584269908E-06 1.968003134E-01
6.400000000E+00 9.999614022E-01 3.380522701E-06 1.937253085E-01
6.500000000E+00 9.999625863E-01 3.218170394E-06 1.907449192E-01
6.600000000E+00 9.999637114E-01 3.121388869E-06 1.878548446E-01
6.700000000E+00 9.999648123E-01 2.856217299E-06 1.850510410E-01
6.800000000E+00 9.999658499E-01 2.704211754E-06 1.823297021E-01
6.900000000E+00 9.999668422E-01 2.561686094E-06 1.796872427E-01
7.000000000E+00 9.999677842E-01 2.479803752E-06 1.771202821E-01
7.100000000E+00 9.999686853E-01 2.410442052E-06 1.746256302E-01
7.200000000E+00 9.999695798E-01 2.191302093E-06 1.722002742E-01
7.300000000E+00 9.999704174E-01 2.082339751E-06 1.698413664E-01
7.400000000E+00 9.999712203E-01 1.982855000E-06 1.675462128E-01
7.500000000E+00 9.999719826E-01 1.930331374E-06 1.653122633E-01
7.600000000E+00 9.999727151E-01 1.879867378E-06 1.631371019E-01
7.700000000E+00 9.999734494E-01 1.711591635E-06 1.610184383E-01
7.800000000E+00 9.999741349E-01 1.631926016E-06 1.589540993E-01
7.900000000E+00 9.999747942E-01 1.556610016E-06 1.569420221E-01
8.000000000E+00 9.999754206E-01 1.517240185E-06 1.549802468E-01
8.100000000E+00 9.999760237E-01 1.480008716E-06 1.530669104E-01
8.200000000E+00 9.999766304E-01 1.358664444E-06 1.512002408E-01
8.300000000E+00 9.999771980E-01 1.299461185E-06 1.493785512E-01
8.400000000E+00 9.999777452E-01 1.243295014E-06 1.476002351E-01
8.500000000E+00 9.999782691E-01 1.203045817E-06 1.458637617E-01
8.600000000E+00 9.999787715E-01 1.175230669E-06 1.441676715E-01
8.700000000E+00 9.999792567E-01 1.148369141E-06 1.425105718E-01
8.800000000E+00 9.999797479E-01 1.048225083E-06 1.408911335E-01
8.900000000E+00 9.999802063E-01 1.005368879E-06 1.393080870E-01
9.000000000E+00 9.999806493E-01 9.645702920E-07 1.377602194E-01
9.100000000E+00 9.999810739E-01 9.380835345E-07 1.362463708E-01
9.200000000E+00 9.999814831E-01 9.178012464E-07 1.347654320E-01
9.300000000E+00 9.999818792E-01 8.981697016E-07 1.333163414E-01
9.400000000E+00 9.999822864E-01 8.187865677E-07 1.318980824E-01
9.500000000E+00 9.999826633E-01 7.864471171E-07 1.305096815E-01
9.600000000E+00 9.999830283E-01 7.555803895E-07 1.291502057E-01
9.700000000E+00 9.999833795E-01 7.322076284E-07 1.278187603E-01
9.800000000E+00 9.999837170E-01 7.173408554E-07 1.265144872E-01
9.900000000E+00 9.999840443E-01 7.029223116E-07 1.252365631E-01
1.000000000E+01 9.999843821E-01 6.477150930E-07 1.239841975E-01
1.010000000E+01 9.999846954E-01 6.237196777E-07 1.227566311E-01
1.020000000E+01 9.999849994E-01 6.007520884E-07 1.215531348E-01
1.030000000E+01 9.999852944E-01 5.787601449E-07 1.203730072E-01
1.040000000E+01 9.999855770E-01 5.653275395E-07 1.192155745E-01
1.050000000E+01 9.999858504E-01 5.546106727E-07 1.180801881E-01
1.060000000E+01 9.999861161E-01 5.441956806E-07 1.169662240E-01
1.070000000E+01 9.999863941E-01 5.002656215E-07 1.158730817E-01
1.080000000E+01 9.999866499E-01 4.826217548E-07 1.148001828E-01
1.090000000E+01 9.999868984E-01 4.656899068E-07 1.137469701E-01
1.100000000E+01 9.999871401E-01 4.494361027E-07 1.127129068E-01
1.110000000E+01 9.999873722E-01 4.390492048E-07 1.116974752E-01
1.120000000E+01 9.999875967E-01 4.312440411E-07 1.107001763E-01
1.130000000E+01 9.999878152E-01 4.236451760E-07 1.097205287E-01
1.140000000E+01 9.999880280E-01 4.162454026E-07 1.087580679E-01
1.150000000E+01 9.999882566E-01 3.793191793E-07 1.078123456E-01
1.160000000E+01 9.999884625E-01 3.668900155E-07 1.068829288E-01
1.170000000E+01 9.999886630E-01 3.549279747E-07 1.059693995E-01
1.180000000E+01 9.999888581E-01 3.435885296E-07 1.050713538E-01
1.190000000E+01 9.999890446E-01 3.378381955E-07 1.041884012E-01
1.200000000E+01 9.999892264E-01 3.322310199E-07 1.033201645E-01
1.210000000E+01 9.999894038E-01 3.267622899E-07 1.024662789E-01
1.220000000E+01 9.999895939E-01 3.018859057E-07 1.016263914E-01
1.230000000E+01 9.999897664E-01 2.924242680E-07 1.008001605E-01
1.240000000E+01 9.999899347E-01 2.832999179E-07 9.998725601E-02
1.250000000E+01 9.999900989E-01 2.744986495E-07 9.918735797E-02
1.260000000E+01 9.999902590E-01 2.660069543E-07 9.840015671E-02
1.270000000E+01 9.999904121E-01 2.615220586E-07 9.762535233E-02
1.280000000E+01 9.999905613E-01 2.574517385E-07 9.686265426E-02
1.290000000E+01 9.999907071E-01 2.534757096E-07 9.611178098E-02
1.300000000E+01 9.999908495E-01 2.495910818E-07 9.537245958E-02
1.310000000E+01 9.999910078E-01 2.289480157E-07 9.464442554E-02
1.320000000E+01 9.999911472E-01 2.222729718E-07 9.392742232E-02
1.330000000E+01 9.999912833E-01 2.158197254E-07 9.322120110E-02
1.340000000E+01 9.999914164E-01 2.095795611E-07 9.252552049E-02
1.350000000E+01 9.999915457E-01 2.042303457E-07 9.184014627E-02
1.360000000E+01 9.999916695E-01 2.012380002E-07 9.116485107E-02
1.370000000E+01 9.999917907E-01 1.983109410E-07 9.049941420E-02
1.380000000E+01 9.999919092E-01 1.954472827E-07 8.984362135E-02
1.390000000E+01 9.999920252E-01 1.926452073E-07 8.919726436E-02
1.400000000E+01 9.999921582E-01 1.770645413E-07 8.856014104E-02
1.410000000E+01 9.999922725E-01 1.722508510E-07 8.793205493E-02
1.420000000E+01 9.999923843E-01 1.675868107E-07 8.731281511E-02
1.430000000E+01 9.999924938E-01 1.630669119E-07 8.670223598E-02
1.440000000E+01 9.999926009E-01 1.586858826E-07 8.610013712E-02
1.450000000E+01 9.999927028E-01 1.563650105E-07 8.550634307E-02
1.460000000E+01 9.999928024E-01 1.542303596E-07 8.492068319E-02
1.470000000E+01 9.999929000E-01 1.521391247E-07 8.434299147E-02
1.480000000E+01 9.999929956E-01 1.500901363E-07 8.377310639E-02
1.490000000E+01 9.999931082E-01 1.392850354E-07 8.321087078E-02
1.500000000E+01 9.999932034E-01 1.357439914E-07 8.265613164E-02
1.510000000E+01 9.999932966E-01 1.323063118E-07 8.210874004E-02
1.520000000E+01 9.999933880E-01 1.289684191E-07 8.156855096E-02
1.530000000E+01 9.999934775E-01 1.257268805E-07 8.103542318E-02
1.540000000E+01 9.999935652E-01 1.225784009E-07 8.050921913E-02
1.550000000E+01 9.999936480E-01 1.209755416E-07 7.998980481E-02
1.560000000E+01 9.999937292E-01 1.194295442E-07 7.947704965E-02
1.570000000E+01 9.999938088E-01 1.179129939E-07 7.897082641E-02
1.580000000E+01 9.999938869E-01 1.164251477E-07 7.847101105E-02
1.590000000E+01 9.999939636E-01 1.149652857E-07 7.797748268E-02
1.600000000E+01 9.999940644E-01 1.059482819E-07 7.749012341E-02
1.610000000E+01 9.999941419E-01 1.034384455E-07 7.700881830E-02
1.620000000E+01 9.999942180E-01 1.009969206E-07 7.653345522E-02
1.630000000E+01 9.999942925E-01 9.862150168E-08 7.606392482E-02
1.640000000E+01 9.999943657E-01 9.631006633E-08 7.560012040E-02
1.650000000E+01 9.999944361E-01 9.445878541E-08 7.514193785E-02
1.660000000E+01 9.999945029E-01 9.332415564E-08 7.468927558E-02
1.670000000E+01 9.999945686E-01 9.220984735E-08 7.424203441E-02
1.680000000E+01 9.999946330E-01 9.111537815E-08 7.380011753E-02
1.690000000E+01 9.999946964E-01 9.004027985E-08 7.336343045E-02
1.700000000E+01 9.999947586E-01 8.898409802E-08 7.293188086E-02
1.710000000E+01 9.999948577E-01 8.214096391E-08 7.250537863E-02
1.720000000E+01 9.999949229E-01 8.032615670E-08 7.208383573E-02
1.730000000E+01 9.999949870E-01 7.855755569E-08 7.166716616E-02
1.740000000E+01 9.999950498E-01 7.683376379E-08 7.125528590E-02
1.750000000E+01 9.999951115E-01 7.515343334E-08 7.084811283E-02
1.760000000E+01 9.999951720E-01 7.352392664E-08 7.044556674E-02
1.770000000E+01 9.999952264E-01 7.269549464E-08 7.004756919E-02
1.780000000E+01 9.999952799E-01 7.188098572E-08 6.965404352E-02
1.790000000E+01 9.999953324E-01 7.108008963E-08 6.926491478E-02
1.800000000E+01 9.999953842E-01 7.029250468E-08 6.888010970E-02
1.810000000E+01 9.999955041E-01 6.611400058E-08 6.849955661E-02
1.820000000E+01 9.999955666E-01 6.473981986E-08 6.812318542E-02
1.830000000E+01 9.999956278E-01 6.339866801E-08 6.775092757E-02
1.840000000E+01 9.999956878E-01 6.208960122E-08 6.738271601E-02
1.850000000E+01 9.999957466E-01 6.081170720E-08 6.701848511E-02
1.860000000E+01 9.999958043E-01 5.956410400E-08 6.665817068E-02
1.870000000E+01 9.999958497E-01 5.889904875E-08 6.630170987E-02
1.880000000E+01 9.999959698E-01 5.719559857E-08 6.594904120E-02
1.890000000E+01 9.999960793E-01 5.610344415E-08 6.560010448E-02
1.900000000E+01 9.999962900E-01 5.511554736E-08 6.525484077E-02
1.910000000E+01 9.999961579E-01 3.846024193E-07 6.491319239E-02
1.920000000E+01 9.999961978E-01 3.806065771E-07 6.457510284E-02
1.930000000E+01 9.999961206E-01 3.688321027E-07 6.424051682E-02
1.940000000E+01 9.999961261E-01 3.627254589E-07 6.390938013E-02
1.950000000E+01 9.999961657E-01 3.590147369E-07 6.358163972E-02
1.960000000E+01 9.999962047E-01 3.553606667E-07 6.325724360E-02
1.970000000E+01 9.999962432E-01 3.517621008E-07 6.293614084E-02
1.980000000E+01 9.999962129E-01 3.345652858E-07 6.261828154E-02
1.990000000E+01 9.999962358E-01 3.281771824E-07 6.230361681E-02
2.000000000E+01 9.999962585E-01 3.219298315E-07 6.199209873E-02
2.010000000E+01 9.999962811E-01 3.158195469E-07 6.168368033E-02
2.020000000E+01 9.999963163E-01 3.123851799E-07 6.137831557E-02
2.030000000E+01 9.999963525E-01 3.093150739E-07 6.107595934E-02
2.040000000E+01 9.999963881E-01 3.062900058E-07 6.077656738E-02
2.050000000E+01 9.999964233E-01 3.033090989E-07 6.048009632E-02
2.060000000E+01 9.999964579E-01 3.003714978E-07 6.018650362E-02
2.070000000E+01 9.999964921E-01 2.974763678E-07 5.989574756E-02
2.080000000E+01 9.999964874E-01 2.788570743E-07 5.960778724E-02
2.090000000E+01 9.999965156E-01 2.740142170E-07 5.932258252E-02
2.100000000E+01 9.999965436E-01 2.692713101E-07 5.904009403E-02
2.110000000E+01 9.999965711E-01 2.646258812E-07 5.876028316E-02
2.120000000E+01 9.999965984E-01 2.600755294E-07 5.848311201E-02
2.130000000E+01 9.999966254E-01 2.556179236E-07 5.820854341E-02
2.140000000E+01 9.999966520E-01 2.512507994E-07 5.793654087E-02
2.150000000E+01 9.999966784E-01 2.469931385E-07 5.766706859E-02
2.160000000E+01 9.999967091E-01 2.447114589E-07 5.740009142E-02
2.170000000E+01 9.999967393E-01 2.424612505E-07 5.713557487E-02
2.180000000E+01 9.999967692E-01 2.402419373E-07 5.687348507E-02
2.190000000E+01 9.999967986E-01 2.380529561E-07 5.661378879E-02
2.200000000E+01 9.999968277E-01 2.358937568E-07 5.635645339E-02
2.210000000E+01 9.999968563E-01 2.337638015E-07 5.610144681E-02
2.220000000E+01 9.999968846E-01 2.316625645E-07 5.584873759E-02
2.230000000E+01 9.999968932E-01 2.166370520E-07 5.559829482E-02
2.240000000E+01 9.999969186E-01 2.131691251E-07 5.535008815E-02
2.250000000E+01 9.999969437E-01 2.097677044E-07 5.510408776E-02
2.260000000E+01 9.999969685E-01 2.064312574E-07 5.486026436E-02
2.270000000E+01 9.999969930E-01 2.031582929E-07 5.461858919E-02
2.280000000E+01 9.999970172E-01 1.999473600E-07 5.437903397E-02
2.290000000E+01 9.999970411E-01 1.967970467E-07 5.414157094E-02
2.300000000E+01 9.999970651E-01 1.939635653E-07 5.390617281E-02
2.310000000E+01 9.999970904E-01 1.922878620E-07 5.367281275E-02
2.320000000E+01 9.999971154E-01 1.906337806E-07 5.344146442E-02
2.330000000E+01 9.999971402E-01 1.890009506E-07 5.321210191E-02
2.340000000E+01 9.999971645E-01 1.873890095E-07 5.298469977E-02
2.350000000E+01 9.999971886E-01 1.857976026E-07 5.275923296E-02
2.360000000E+01 9.999972124E-01 1.842263826E-07 5.253567689E-02
2.370000000E+01 9.999972359E-01 1.826750094E-07 5.231400737E-02
2.380000000E+01 9.999972486E-01 1.713929830E-07 5.209420061E-02
2.390000000E+01 9.999972704E-01 1.688261189E-07 5.187623325E-02
2.400000000E+01 9.999972919E-01 1.663053804E-07 5.166008227E-02
2.410000000E+01 9.999973131E-01 1.638297707E-07 5.144572509E-02
2.420000000E+01 9.999973341E-01 1.613983186E-07 5.123313945E-02
2.430000000E+01 9.999973549E-01 1.590100773E-07 5.102230348E-02
2.440000000E+01 9.999973754E-01 1.566641239E-07 5.081319568E-02
2.450000000E+01 9.999973957E-01 1.543595588E-07 5.060579488E-02
2.460000000E+01 9.999974161E-01 1.523901738E-07 5.040008027E-02
2.470000000E+01 9.999974369E-01 1.511587431E-07 5.019603136E-02
2.480000000E+01 9.999974576E-01 1.499421787E-07 4.999362801E-02
2.490000000E+01 9.999974779E-01 1.487402422E-07 4.979285038E-02
2.500000000E+01 9.999974981E-01 1.475527001E-07 4.959367898E-02
2.510000000E+01 9.999975180E-01 1.463793235E-07 4.939609460E-02
2.520000000E+01 9.999975376E-01 1.452198878E-07 4.920007836E-02
2.530000000E+01 9.999975571E-01 1.440741733E-07 4.900561164E-02
2.540000000E+01 9.999975702E-01 1.353687175E-07 4.881267616E-02
2.550000000E+01 9.999975886E-01 1.334359464E-07 4.862125391E-02
2.560000000E+01 9.999976067E-01 1.315359529E-07 4.843132713E-02
2.570000000E+01 9.999976246E-01 1.296680705E-07 4.824287839E-02
2.580000000E+01 9.999976423E-01 1.278316486E-07 4.805589049E-02
2.590000000E+01 9.999976598E-01 1.260260519E-07 4.787034651E-02
2.600000000E+01 9.999976772E-01 1.242506604E-07 4.768622979E-02
2.610000000E+01 9.999976943E-01 1.225048687E-07 4.750352393E-02
2.620000000E+01 9.999977112E-01 1.207880855E-07 4.732221277E-02
2.630000000E+01 9.999977282E-01 1.193901181E-07 4.714228040E-02
2.640000000E+01 9.999977454E-01 1.184873605E-07 4.696371116E-02
2.650000000E+01 9.999977624E-01 1.175948036E-07 4.678648961E-02
2.660000000E+01 9.999977792E-01 1.167122941E-07 4.661060055E-02
2.670000000E+01 9.999977958E-01 1.158396819E-07 4.643602901E-02
2.680000000E+01 9.999978122E-01 1.149768194E-07 4.626276025E-02
2.690000000E+01 9.999978285E-01 1.141235621E-07 4.609077972E-02
2.700000000E+01 9.999978445E-01 1.132797679E-07 4.592007313E-02
2.710000000E+01 9.999978604E-01 1.124452973E-07 4.575062637E-02
2.720000000E+01 9.999978723E-01 1.051313249E-07 4.558242554E-02
2.730000000E+01 9.999978874E-01 1.037017528E-07 4.541545694E-02
2.740000000E+01 9.999979025E-01 1.022949998E-07 4.524970710E-02
2.750000000E+01 9.999979173E-01 1.009106304E-07 4.508516271E-02
2.760000000E+01 9.999979320E-01 9.954821903E-08 4.492181067E-02
2.770000000E+01 9.999979465E-01 9.820734952E-08 4.475963807E-02
2.780000000E+01 9.999979609E-01 9.688761497E-08 4.459863218E-02
2.790000000E+01 9.999979752E-01 9.558861749E-08 4.443878045E-02
2.800000000E+01 9.999979892E-01 9.430996798E-08 4.428007052E-02
2.810000000E+01 9.999980033E-01 9.319140137E-08 4.412249020E-02
2.820000000E+01 9.999980174E-01 9.253164131E-08 4.396602747E-02
2.830000000E+01 9.999980314E-01 9.187886281E-08 4.381067048E-02
2.840000000E+01 9.999980452E-01 9.123296771E-08 4.365640756E-02
2.850000000E+01 9.999980589E-01 9.059385957E-08 4.350322718E-02
2.860000000E+01 9.999980725E-01 8.996144363E-08 4.335111799E-02
2.870000000E+01 9.999980859E-01 8.933562679E-08 4.320006880E-02
2.880000000E+01 9.999980992E-01 8.871631756E-08 4.305006856E-02
2.890000000E+01 9.999981123E-01 8.810342601E-08 4.290110639E-02
2.900000000E+01 9.999981253E-01 8.749686377E-08 4.275317154E-02
2.910000000E+01 9.999981359E-01 8.168429656E-08 4.260625342E-02
2.920000000E+01 9.999981485E-01 8.063963952E-08 4.246034160E-02
2.930000000E+01 9.999981609E-01 7.961061241E-08 4.231542575E-02
2.940000000E+01 9.999981732E-01 7.859693590E-08 4.217149573E-02
2.950000000E+01 9.999981853E-01 7.759833652E-08 4.202854151E-02
2.960000000E+01 9.999981974E-01 7.661454653E-08 4.188655320E-02
2.970000000E+01 9.999982093E-01 7.564530375E-08 4.174552103E-02
2.980000000E+01 9.999982211E-01 7.469035147E-08 4.160543539E-02
2.990000000E+01 9.999982328E-01 7.374943825E-08 4.146628678E-02
3.000000000E+01 9.999982444E-01 7.282231789E-08 4.132806582E-02
3.010000000E+01 9.999982560E-01 7.228260823E-08 4.119076328E-02
3.020000000E+01 9.999982675E-01 7.180470800E-08 4.105437002E-02
3.030000000E+01 9.999982789E-01 7.133153164E-08 4.091887705E-02
3.040000000E+01 9.999982902E-01 7.086301710E-08 4.078427548E-02
3.050000000E+01 9.999983014E-01 7.039910334E-08 4.065055654E-02
3.060000000E+01 9.999983125E-01 6.993973032E-08 4.051771159E-02
3.070000000E+01 9.999983235E-01 6.948483897E-08 4.038573207E-02
3.080000000E+01 9.999983344E-01 6.903437118E-08 4.025460956E-02
3.090000000E+01 9.999983451E-01 6.858826979E-08 4.012433575E-02
3.100000000E+01 9.999983558E-01 6.814647854E-08 3.999490241E-02
3.110000000E+01 9.999983651E-01 6.368387586E-08 3.986630143E-02
3.120000000E+01 9.999983754E-01 6.292233581E-08 3.973852483E-02
3.130000000E+01 9.999983857E-01 6.217145960E-08 3.961156468E-02
3.140000000E+01 9.999983959E-01 6.143106879E-08 3.948541320E-02
3.150000000E+01 9.999984059E-01 6.070098845E-08 3.936006269E-02
3.160000000E+01 9.999984159E-01 5.998104708E-08 3.923550552E-02
3.170000000E+01 9.999984258E-01 5.927107651E-08 3.911173421E-02
3.180000000E+01 9.999984355E-01 5.857091186E-08 3.898874134E-02
3.190000000E+01 9.999984452E-01 5.788039145E-08 3.886651958E-02
3.200000000E+01 9.999984548E-01 5.719935671E-08 3.874506171E-02
3.210000000E+01 9.999984644E-01 5.656858084E-08 3.862436058E-02
3.220000000E+01 9.999984739E-01 5.621776878E-08 3.850440915E-02
3.230000000E+01 9.999984833E-01 5.587021000E-08 3.838520045E-02
3.240000000E+01 9.999984927E-01 5.552586437E-08 3.826672761E-02
3.250000000E+01 9.999985019E-01 5.518469244E-08 3.814898383E-02
3.260000000E+01 9.999985111E-01 5.484665530E-08 3.803196241E-02
3.270000000E+01 9.999985202E-01 5.451171468E-08 3.791565672E-02
