# 08/03/2022 
# Density retrieved from www.chemicool.com/densities.html 
# Includes the real (n) and complex (k) part of the  refractive index. 
# Element, Nd  (Z = 60) 
# Nominal density, g cm-3 =  7.0 
#    E [keV]      n       k    Wavelength [nm] 
2.000000000E+00 9.997307671E-01 9.596301687E-05 6.199209873E-01
2.100000000E+00 9.997530948E-01 8.174173633E-05 5.904009403E-01
2.200000000E+00 9.997729535E-01 6.972152467E-05 5.635645339E-01
2.300000000E+00 9.997908672E-01 5.998072733E-05 5.390617281E-01
2.400000000E+00 9.998069636E-01 5.201942203E-05 5.166008227E-01
2.500000000E+00 9.998213958E-01 4.538785136E-05 4.959367898E-01
2.600000000E+00 9.998340257E-01 3.974606665E-05 4.768622979E-01
2.700000000E+00 9.998456771E-01 3.492215089E-05 4.592007313E-01
2.800000000E+00 9.998562074E-01 3.091700364E-05 4.428007052E-01
2.900000000E+00 9.998655914E-01 2.747032351E-05 4.275317154E-01
3.000000000E+00 9.998740378E-01 2.447638374E-05 4.132806582E-01
3.100000000E+00 9.998819395E-01 2.176296342E-05 3.999490241E-01
3.200000000E+00 9.998891487E-01 1.942333685E-05 3.874506171E-01
3.300000000E+00 9.998957964E-01 1.739970196E-05 3.757096893E-01
3.400000000E+00 9.999018987E-01 1.563426971E-05 3.646594043E-01
3.500000000E+00 9.999075084E-01 1.409083187E-05 3.542405642E-01
3.600000000E+00 9.999126630E-01 1.279460359E-05 3.444005485E-01
3.700000000E+00 9.999174351E-01 1.156028278E-05 3.350924256E-01
3.800000000E+00 9.999218275E-01 1.054404069E-05 3.262742038E-01
3.900000000E+00 9.999259074E-01 9.591056117E-06 3.179081986E-01
4.000000000E+00 9.999296688E-01 8.801849916E-06 3.099604936E-01
4.100000000E+00 9.999330216E-01 8.153106800E-06 3.024004816E-01
4.200000000E+00 9.999363830E-01 7.344518306E-06 2.952004701E-01
4.300000000E+00 9.999394373E-01 6.744294391E-06 2.883353429E-01
4.400000000E+00 9.999422010E-01 6.355906661E-06 2.817822670E-01
4.500000000E+00 9.999449911E-01 5.727194218E-06 2.755204388E-01
4.600000000E+00 9.999474934E-01 5.289799987E-06 2.695308640E-01
4.700000000E+00 9.999497462E-01 5.008087663E-06 2.637961648E-01
4.800000000E+00 9.999520862E-01 4.544544609E-06 2.583004114E-01
4.900000000E+00 9.999541676E-01 4.221126474E-06 2.530289744E-01
5.000000000E+00 9.999560550E-01 3.984453079E-06 2.479683949E-01
5.100000000E+00 9.999577615E-01 3.829731910E-06 2.431062695E-01
5.200000000E+00 9.999597965E-01 3.419676630E-06 2.384311490E-01
5.300000000E+00 9.999614489E-01 3.199051372E-06 2.339324480E-01
5.400000000E+00 9.999628635E-01 3.081665056E-06 2.296003657E-01
5.500000000E+00 9.999646691E-01 2.805520205E-06 2.254258136E-01
5.600000000E+00 9.999661289E-01 2.632309706E-06 2.214003526E-01
5.700000000E+00 9.999674274E-01 2.498220158E-06 2.175161359E-01
5.800000000E+00 9.999685409E-01 2.412817269E-06 2.137658577E-01
5.900000000E+00 9.999706527E-01 2.185588545E-06 2.101427076E-01
6.000000000E+00 9.999720260E-01 2.057469018E-06 2.066403291E-01
6.100000000E+00 9.999734134E-01 1.947350271E-06 2.032527827E-01
6.200000000E+00 9.999776121E-01 1.828794393E-06 1.999745120E-01
6.300000000E+00 9.999756539E-01 5.212263278E-06 1.968003134E-01
6.400000000E+00 9.999755632E-01 4.885935218E-06 1.937253085E-01
6.500000000E+00 9.999760013E-01 4.632254294E-06 1.907449192E-01
6.600000000E+00 9.999766525E-01 4.338500472E-06 1.878548446E-01
6.700000000E+00 9.999778037E-01 4.096221665E-06 1.850510410E-01
6.800000000E+00 9.999783344E-01 5.442424905E-06 1.823297021E-01
6.900000000E+00 9.999779996E-01 5.077430868E-06 1.796872427E-01
7.000000000E+00 9.999784204E-01 4.822949768E-06 1.771202821E-01
7.100000000E+00 9.999790540E-01 4.560145660E-06 1.746256302E-01
7.200000000E+00 9.999794903E-01 5.045346404E-06 1.722002742E-01
7.300000000E+00 9.999795647E-01 4.797660468E-06 1.698413664E-01
7.400000000E+00 9.999798060E-01 4.550759344E-06 1.675462128E-01
7.500000000E+00 9.999803410E-01 4.430214785E-06 1.653122633E-01
7.600000000E+00 9.999808549E-01 4.314397190E-06 1.631371019E-01
7.700000000E+00 9.999809317E-01 3.955607122E-06 1.610184383E-01
7.800000000E+00 9.999812919E-01 3.780325277E-06 1.589540993E-01
7.900000000E+00 9.999816432E-01 3.614433453E-06 1.569420221E-01
8.000000000E+00 9.999820968E-01 3.523195594E-06 1.549802468E-01
8.100000000E+00 9.999825361E-01 3.436740101E-06 1.530669104E-01
8.200000000E+00 9.999827562E-01 3.169780759E-06 1.512002408E-01
8.300000000E+00 9.999831057E-01 3.036571193E-06 1.493785512E-01
8.400000000E+00 9.999834451E-01 2.910100469E-06 1.476002351E-01
8.500000000E+00 9.999838058E-01 2.818034455E-06 1.458637617E-01
8.600000000E+00 9.999841802E-01 2.752879792E-06 1.441676715E-01
8.700000000E+00 9.999845418E-01 2.689958903E-06 1.425105718E-01
8.800000000E+00 9.999847572E-01 2.464733846E-06 1.408911335E-01
8.900000000E+00 9.999850627E-01 2.366587788E-06 1.393080870E-01
9.000000000E+00 9.999853593E-01 2.273106925E-06 1.377602194E-01
9.100000000E+00 9.999856695E-01 2.211446172E-06 1.362463708E-01
9.200000000E+00 9.999859793E-01 2.163632532E-06 1.347654320E-01
9.300000000E+00 9.999862792E-01 2.117352960E-06 1.333163414E-01
9.400000000E+00 9.999864928E-01 1.938096436E-06 1.318980824E-01
9.500000000E+00 9.999867563E-01 1.863677472E-06 1.305096815E-01
9.600000000E+00 9.999870123E-01 1.792612773E-06 1.291502057E-01
9.700000000E+00 9.999872686E-01 1.738307729E-06 1.278187603E-01
9.800000000E+00 9.999875271E-01 1.703013059E-06 1.265144872E-01
9.900000000E+00 9.999877779E-01 1.668782514E-06 1.252365631E-01
1.000000000E+01 9.999879825E-01 1.542881189E-06 1.239841975E-01
1.010000000E+01 9.999882088E-01 1.487220098E-06 1.227566311E-01
1.020000000E+01 9.999884288E-01 1.433920135E-06 1.215531348E-01
1.030000000E+01 9.999886427E-01 1.382862036E-06 1.203730072E-01
1.040000000E+01 9.999888578E-01 1.351098014E-06 1.192155745E-01
1.050000000E+01 9.999890690E-01 1.325485362E-06 1.180801881E-01
1.060000000E+01 9.999892743E-01 1.300594172E-06 1.169662240E-01
1.070000000E+01 9.999894512E-01 1.202308871E-06 1.158730817E-01
1.080000000E+01 9.999896400E-01 1.161688015E-06 1.148001828E-01
1.090000000E+01 9.999898238E-01 1.122681112E-06 1.137469701E-01
1.100000000E+01 9.999900027E-01 1.085211769E-06 1.127129068E-01
1.110000000E+01 9.999901805E-01 1.060650066E-06 1.116974752E-01
1.120000000E+01 9.999903551E-01 1.041794440E-06 1.107001763E-01
1.130000000E+01 9.999905250E-01 1.023437189E-06 1.097205287E-01
1.140000000E+01 9.999906905E-01 1.005560900E-06 1.087580679E-01
1.150000000E+01 9.999908374E-01 9.229747156E-07 1.078123456E-01
1.160000000E+01 9.999909918E-01 8.941529223E-07 1.068829288E-01
1.170000000E+01 9.999911424E-01 8.663954831E-07 1.059693995E-01
1.180000000E+01 9.999912893E-01 8.400420080E-07 1.050713538E-01
1.190000000E+01 9.999914351E-01 8.259829757E-07 1.041884012E-01
1.200000000E+01 9.999915773E-01 8.122739527E-07 1.033201645E-01
1.210000000E+01 9.999917159E-01 7.989034164E-07 1.024662789E-01
1.220000000E+01 9.999918398E-01 7.434214859E-07 1.016263914E-01
1.230000000E+01 9.999919693E-01 7.214514625E-07 1.008001605E-01
1.240000000E+01 9.999920957E-01 7.002481973E-07 9.998725601E-02
1.250000000E+01 9.999922192E-01 6.797797475E-07 9.918735797E-02
1.260000000E+01 9.999923398E-01 6.600157269E-07 9.840015671E-02
1.270000000E+01 9.999924597E-01 6.489844666E-07 9.762535233E-02
1.280000000E+01 9.999925771E-01 6.388836952E-07 9.686265426E-02
1.290000000E+01 9.999926917E-01 6.290169138E-07 9.611178098E-02
1.300000000E+01 9.999928037E-01 6.193769504E-07 9.537245958E-02
1.310000000E+01 9.999929078E-01 5.717547588E-07 9.464442554E-02
1.320000000E+01 9.999930138E-01 5.558246425E-07 9.392742232E-02
1.330000000E+01 9.999931174E-01 5.404153105E-07 9.322120110E-02
1.340000000E+01 9.999932188E-01 5.255064696E-07 9.252552049E-02
1.350000000E+01 9.999933182E-01 5.126347299E-07 9.184014627E-02
1.360000000E+01 9.999934161E-01 5.051236998E-07 9.116485107E-02
1.370000000E+01 9.999935118E-01 4.977765439E-07 9.049941420E-02
1.380000000E+01 9.999936055E-01 4.905885293E-07 8.984362135E-02
1.390000000E+01 9.999936972E-01 4.835550930E-07 8.919726436E-02
1.400000000E+01 9.999937848E-01 4.464834714E-07 8.856014104E-02
1.410000000E+01 9.999938723E-01 4.347386260E-07 8.793205493E-02
1.420000000E+01 9.999939579E-01 4.233546351E-07 8.731281511E-02
1.430000000E+01 9.999940418E-01 4.123182958E-07 8.670223598E-02
1.440000000E+01 9.999941239E-01 4.016169703E-07 8.610013712E-02
1.450000000E+01 9.999942046E-01 3.957681564E-07 8.550634307E-02
1.460000000E+01 9.999942838E-01 3.903652415E-07 8.492068319E-02
1.470000000E+01 9.999943613E-01 3.850722148E-07 8.434299147E-02
1.480000000E+01 9.999944372E-01 3.798861162E-07 8.377310639E-02
1.490000000E+01 9.999945132E-01 3.534483495E-07 8.321087078E-02
1.500000000E+01 9.999945864E-01 3.446486055E-07 8.265613164E-02
1.510000000E+01 9.999946582E-01 3.361038170E-07 8.210874004E-02
1.520000000E+01 9.999947285E-01 3.278051939E-07 8.156855096E-02
1.530000000E+01 9.999947975E-01 3.197443002E-07 8.103542318E-02
1.540000000E+01 9.999948651E-01 3.119130383E-07 8.050921913E-02
1.550000000E+01 9.999949311E-01 3.078374808E-07 7.998980481E-02
1.560000000E+01 9.999949959E-01 3.039034959E-07 7.947704965E-02
1.570000000E+01 9.999950595E-01 3.000444430E-07 7.897082641E-02
1.580000000E+01 9.999951218E-01 2.962584312E-07 7.847101105E-02
1.590000000E+01 9.999951830E-01 2.925436287E-07 7.797748268E-02
1.600000000E+01 9.999952457E-01 2.704030777E-07 7.749012341E-02
1.610000000E+01 9.999953050E-01 2.641335520E-07 7.700881830E-02
1.620000000E+01 9.999953632E-01 2.580333616E-07 7.653345522E-02
1.630000000E+01 9.999954203E-01 2.520970607E-07 7.606392482E-02
1.640000000E+01 9.999954764E-01 2.463194085E-07 7.560012040E-02
1.650000000E+01 9.999955313E-01 2.416664332E-07 7.514193785E-02
1.660000000E+01 9.999955850E-01 2.387635595E-07 7.468927558E-02
1.670000000E+01 9.999956377E-01 2.359126769E-07 7.424203441E-02
1.680000000E+01 9.999956895E-01 2.331125512E-07 7.380011753E-02
1.690000000E+01 9.999957404E-01 2.303619847E-07 7.336343045E-02
1.700000000E+01 9.999957903E-01 2.276598147E-07 7.293188086E-02
1.710000000E+01 9.999958424E-01 2.107692852E-07 7.250537863E-02
1.720000000E+01 9.999958911E-01 2.062107545E-07 7.208383573E-02
1.730000000E+01 9.999959389E-01 2.017674013E-07 7.166716616E-02
1.740000000E+01 9.999959858E-01 1.974357571E-07 7.125528590E-02
1.750000000E+01 9.999960320E-01 1.932124752E-07 7.084811283E-02
1.760000000E+01 9.999960774E-01 1.891155686E-07 7.044556674E-02
1.770000000E+01 9.999961216E-01 1.869847060E-07 7.004756919E-02
1.780000000E+01 9.999961650E-01 1.848896558E-07 6.965404352E-02
1.790000000E+01 9.999962078E-01 1.828296200E-07 6.926491478E-02
1.800000000E+01 9.999962498E-01 1.808038226E-07 6.888010970E-02
1.810000000E+01 9.999962911E-01 1.788115092E-07 6.849955661E-02
1.820000000E+01 9.999963344E-01 1.670035307E-07 6.812318542E-02
1.830000000E+01 9.999963748E-01 1.636249061E-07 6.775092757E-02
1.840000000E+01 9.999964145E-01 1.603264207E-07 6.738271601E-02
1.850000000E+01 9.999964536E-01 1.571058059E-07 6.701848511E-02
1.860000000E+01 9.999964920E-01 1.539608683E-07 6.665817068E-02
1.870000000E+01 9.999965298E-01 1.508894870E-07 6.630170987E-02
1.880000000E+01 9.999965670E-01 1.478896107E-07 6.594904120E-02
1.890000000E+01 9.999966033E-01 1.461363017E-07 6.560010448E-02
1.900000000E+01 9.999966389E-01 1.446020730E-07 6.525484077E-02
1.910000000E+01 9.999966740E-01 1.430918789E-07 6.491319239E-02
1.920000000E+01 9.999967086E-01 1.416052201E-07 6.457510284E-02
1.930000000E+01 9.999967426E-01 1.401416101E-07 6.424051682E-02
1.940000000E+01 9.999967761E-01 1.387005748E-07 6.390938013E-02
1.950000000E+01 9.999968118E-01 1.291738441E-07 6.358163972E-02
1.960000000E+01 9.999968446E-01 1.267361695E-07 6.325724360E-02
1.970000000E+01 9.999968769E-01 1.243524931E-07 6.293614084E-02
1.980000000E+01 9.999969088E-01 1.220213868E-07 6.261828154E-02
1.990000000E+01 9.999969401E-01 1.197414663E-07 6.230361681E-02
2.000000000E+01 9.999969710E-01 1.175113903E-07 6.199209873E-02
2.010000000E+01 9.999970014E-01 1.153298587E-07 6.168368033E-02
2.020000000E+01 9.999970310E-01 1.140810400E-07 6.137831557E-02
2.030000000E+01 9.999970602E-01 1.129598572E-07 6.107595934E-02
2.040000000E+01 9.999970889E-01 1.118551220E-07 6.077656738E-02
2.050000000E+01 9.999971173E-01 1.107665141E-07 6.048009632E-02
2.060000000E+01 9.999971452E-01 1.096937213E-07 6.018650362E-02
2.070000000E+01 9.999971727E-01 1.086364385E-07 5.989574756E-02
2.080000000E+01 9.999972022E-01 1.016655815E-07 5.960778724E-02
2.090000000E+01 9.999972292E-01 9.987495365E-08 5.932258252E-02
2.100000000E+01 9.999972558E-01 9.812147715E-08 5.904009403E-02
2.110000000E+01 9.999972821E-01 9.640423045E-08 5.876028316E-02
2.120000000E+01 9.999973080E-01 9.472231882E-08 5.848311201E-02
2.130000000E+01 9.999973335E-01 9.307487339E-08 5.820854341E-02
2.140000000E+01 9.999973587E-01 9.146105039E-08 5.793654087E-02
2.150000000E+01 9.999973835E-01 8.988799535E-08 5.766706859E-02
2.160000000E+01 9.999974076E-01 8.905762571E-08 5.740009142E-02
2.170000000E+01 9.999974315E-01 8.823870936E-08 5.713557487E-02
2.180000000E+01 9.999974550E-01 8.743103664E-08 5.687348507E-02
2.190000000E+01 9.999974782E-01 8.663440265E-08 5.661378879E-02
2.200000000E+01 9.999975010E-01 8.584860713E-08 5.635645339E-02
2.210000000E+01 9.999975236E-01 8.507345438E-08 5.610144681E-02
2.220000000E+01 9.999975459E-01 8.430875305E-08 5.584873759E-02
2.230000000E+01 9.999975701E-01 7.859466866E-08 5.559829482E-02
2.240000000E+01 9.999975920E-01 7.730558548E-08 5.535008815E-02
2.250000000E+01 9.999976136E-01 7.604145177E-08 5.510408776E-02
2.260000000E+01 9.999976350E-01 7.480168979E-08 5.486026436E-02
2.270000000E+01 9.999976560E-01 7.358573750E-08 5.461858919E-02
2.280000000E+01 9.999976768E-01 7.239304806E-08 5.437903397E-02
2.290000000E+01 9.999976973E-01 7.122308936E-08 5.414157094E-02
2.300000000E+01 9.999977175E-01 7.017397621E-08 5.390617281E-02
2.310000000E+01 9.999977372E-01 6.956772440E-08 5.367281275E-02
2.320000000E+01 9.999977567E-01 6.896929514E-08 5.344146442E-02
2.330000000E+01 9.999977759E-01 6.837855443E-08 5.321210191E-02
2.340000000E+01 9.999977948E-01 6.779537113E-08 5.298469977E-02
2.350000000E+01 9.999978136E-01 6.721961687E-08 5.275923296E-02
2.360000000E+01 9.999978321E-01 6.665116600E-08 5.253567689E-02
2.370000000E+01 9.999978503E-01 6.608989552E-08 5.231400737E-02
2.380000000E+01 9.999978703E-01 6.185110093E-08 5.209420061E-02
2.390000000E+01 9.999978883E-01 6.090545337E-08 5.187623325E-02
2.400000000E+01 9.999979061E-01 5.997693264E-08 5.166008227E-02
2.410000000E+01 9.999979237E-01 5.906516716E-08 5.144572509E-02
2.420000000E+01 9.999979410E-01 5.816979478E-08 5.123313945E-02
2.430000000E+01 9.999979581E-01 5.729046256E-08 5.102230348E-02
2.440000000E+01 9.999979750E-01 5.642682648E-08 5.081319568E-02
2.450000000E+01 9.999979917E-01 5.557855118E-08 5.060579488E-02
2.460000000E+01 9.999980082E-01 5.485666503E-08 5.040008027E-02
2.470000000E+01 9.999980243E-01 5.441338066E-08 5.019603136E-02
2.480000000E+01 9.999980402E-01 5.397544779E-08 4.999362801E-02
2.490000000E+01 9.999980559E-01 5.354278062E-08 4.979285038E-02
2.500000000E+01 9.999980714E-01 5.311529506E-08 4.959367898E-02
2.510000000E+01 9.999980868E-01 5.269290870E-08 4.939609460E-02
2.520000000E+01 9.999981019E-01 5.227554077E-08 4.920007836E-02
2.530000000E+01 9.999981169E-01 5.186311208E-08 4.900561164E-02
2.540000000E+01 9.999981334E-01 4.871856884E-08 4.881267616E-02
2.550000000E+01 9.999981482E-01 4.802165921E-08 4.862125391E-02
2.560000000E+01 9.999981628E-01 4.733657678E-08 4.843132713E-02
2.570000000E+01 9.999981773E-01 4.666308094E-08 4.824287839E-02
2.580000000E+01 9.999981915E-01 4.600093685E-08 4.805589049E-02
2.590000000E+01 9.999982057E-01 4.534991523E-08 4.787034651E-02
2.600000000E+01 9.999982196E-01 4.470979226E-08 4.768622979E-02
2.610000000E+01 9.999982334E-01 4.408034940E-08 4.750352393E-02
2.620000000E+01 9.999982470E-01 4.346137325E-08 4.732221277E-02
2.630000000E+01 9.999982605E-01 4.295760058E-08 4.714228040E-02
2.640000000E+01 9.999982736E-01 4.263278057E-08 4.696371116E-02
2.650000000E+01 9.999982866E-01 4.231163083E-08 4.678648961E-02
2.660000000E+01 9.999982995E-01 4.199409626E-08 4.661060055E-02
2.670000000E+01 9.999983122E-01 4.168012281E-08 4.643602901E-02
2.680000000E+01 9.999983248E-01 4.136965742E-08 4.626276025E-02
2.690000000E+01 9.999983372E-01 4.106264804E-08 4.609077972E-02
2.700000000E+01 9.999983495E-01 4.075904355E-08 4.592007313E-02
2.710000000E+01 9.999983616E-01 4.045879379E-08 4.575062637E-02
2.720000000E+01 9.999983752E-01 3.775375483E-08 4.558242554E-02
2.730000000E+01 9.999983872E-01 3.723244350E-08 4.541545694E-02
2.740000000E+01 9.999983991E-01 3.671949990E-08 4.524970710E-02
2.750000000E+01 9.999984109E-01 3.621476391E-08 4.508516271E-02
2.760000000E+01 9.999984225E-01 3.571807901E-08 4.492181067E-02
2.770000000E+01 9.999984341E-01 3.522929216E-08 4.475963807E-02
2.780000000E+01 9.999984454E-01 3.474825375E-08 4.459863218E-02
2.790000000E+01 9.999984567E-01 3.427481746E-08 4.443878045E-02
2.800000000E+01 9.999984679E-01 3.380884023E-08 4.428007052E-02
2.810000000E+01 9.999984788E-01 3.340218208E-08 4.412249020E-02
2.820000000E+01 9.999984896E-01 3.316570720E-08 4.396602747E-02
2.830000000E+01 9.999985003E-01 3.293173469E-08 4.381067048E-02
2.840000000E+01 9.999985108E-01 3.270022936E-08 4.365640756E-02
2.850000000E+01 9.999985212E-01 3.247115666E-08 4.350322718E-02
2.860000000E+01 9.999985316E-01 3.224448261E-08 4.335111799E-02
2.870000000E+01 9.999985418E-01 3.202017384E-08 4.320006880E-02
2.880000000E+01 9.999985519E-01 3.179819757E-08 4.305006856E-02
2.890000000E+01 9.999985619E-01 3.157852156E-08 4.290110639E-02
2.900000000E+01 9.999985718E-01 3.136111414E-08 4.275317154E-02
2.910000000E+01 9.999985832E-01 2.918462186E-08 4.260625342E-02
2.920000000E+01 9.999985931E-01 2.880214174E-08 4.246034160E-02
2.930000000E+01 9.999986028E-01 2.842543452E-08 4.231542575E-02
2.940000000E+01 9.999986125E-01 2.805439657E-08 4.217149573E-02
2.950000000E+01 9.999986220E-01 2.768892643E-08 4.202854151E-02
2.960000000E+01 9.999986314E-01 2.732892478E-08 4.188655320E-02
2.970000000E+01 9.999986408E-01 2.697429437E-08 4.174552103E-02
2.980000000E+01 9.999986500E-01 2.662493995E-08 4.160543539E-02
2.990000000E+01 9.999986592E-01 2.628076830E-08 4.146628678E-02
3.000000000E+01 9.999986682E-01 2.594168808E-08 4.132806582E-02
3.010000000E+01 9.999986771E-01 2.574828968E-08 4.119076328E-02
3.020000000E+01 9.999986858E-01 2.557805352E-08 4.105437002E-02
3.030000000E+01 9.999986945E-01 2.540950008E-08 4.091887705E-02
3.040000000E+01 9.999987031E-01 2.524260726E-08 4.078427548E-02
3.050000000E+01 9.999987116E-01 2.507735332E-08 4.065055654E-02
3.060000000E+01 9.999987200E-01 2.491371687E-08 4.051771159E-02
3.070000000E+01 9.999987283E-01 2.475167687E-08 4.038573207E-02
3.080000000E+01 9.999987365E-01 2.459121261E-08 4.025460956E-02
3.090000000E+01 9.999987447E-01 2.443230374E-08 4.012433575E-02
3.100000000E+01 9.999987528E-01 2.427493021E-08 3.999490241E-02
3.110000000E+01 9.999987625E-01 2.258604305E-08 3.986630143E-02
3.120000000E+01 9.999987705E-01 2.230667817E-08 3.973852483E-02
3.130000000E+01 9.999987785E-01 2.203127259E-08 3.961156468E-02
3.140000000E+01 9.999987864E-01 2.175975967E-08 3.948541320E-02
3.150000000E+01 9.999987942E-01 2.149207405E-08 3.936006269E-02
3.160000000E+01 9.999988020E-01 2.122815166E-08 3.923550552E-02
3.170000000E+01 9.999988097E-01 2.096792971E-08 3.911173421E-02
3.180000000E+01 9.999988173E-01 2.071134662E-08 3.898874134E-02
3.190000000E+01 9.999988248E-01 2.045834199E-08 3.886651958E-02
3.200000000E+01 9.999988323E-01 2.020885663E-08 3.874506171E-02
3.210000000E+01 9.999988397E-01 1.997842101E-08 3.862436058E-02
3.220000000E+01 9.999988469E-01 1.985452413E-08 3.850440915E-02
3.230000000E+01 9.999988540E-01 1.973177620E-08 3.838520045E-02
3.240000000E+01 9.999988611E-01 1.961016308E-08 3.826672761E-02
3.250000000E+01 9.999988681E-01 1.948967081E-08 3.814898383E-02
3.260000000E+01 9.999988750E-01 1.937028567E-08 3.803196241E-02
3.270000000E+01 9.999988819E-01 1.925199412E-08 3.791565672E-02
