# 08/03/2022 
# Density retrieved from www.chemicool.com/densities.html 
# Includes the real (n) and complex (k) part of the  refractive index. 
# Element, Ne  (Z = 10) 
# Nominal density, g cm-3 =  0.0009 
#    E [keV]      n       k    Wavelength [nm] 
2.000000000E+00 9.999999519E-01 5.570475912E-09 6.199209873E-01
2.100000000E+00 9.999999564E-01 4.501684785E-09 5.904009403E-01
2.200000000E+00 9.999999603E-01 3.725142838E-09 5.635645339E-01
2.300000000E+00 9.999999636E-01 3.156039317E-09 5.390617281E-01
2.400000000E+00 9.999999666E-01 2.733524453E-09 5.166008227E-01
2.500000000E+00 9.999999693E-01 2.309640867E-09 4.959367898E-01
2.600000000E+00 9.999999716E-01 2.073475330E-09 4.768622979E-01
2.700000000E+00 9.999999737E-01 1.730738461E-09 4.592007313E-01
2.800000000E+00 9.999999755E-01 1.591214984E-09 4.428007052E-01
2.900000000E+00 9.999999772E-01 1.324045159E-09 4.275317154E-01
3.000000000E+00 9.999999787E-01 1.233459951E-09 4.132806582E-01
3.100000000E+00 9.999999801E-01 1.026947634E-09 3.999490241E-01
3.200000000E+00 9.999999813E-01 9.608577635E-10 3.874506171E-01
3.300000000E+00 9.999999825E-01 8.069709988E-10 3.757096893E-01
3.400000000E+00 9.999999835E-01 7.516818732E-10 3.646594043E-01
3.500000000E+00 9.999999844E-01 6.418993107E-10 3.542405642E-01
3.600000000E+00 9.999999853E-01 5.907114120E-10 3.444005485E-01
3.700000000E+00 9.999999861E-01 5.154669161E-10 3.350924256E-01
3.800000000E+00 9.999999868E-01 4.649465704E-10 3.262742038E-01
3.900000000E+00 9.999999875E-01 4.414088413E-10 3.179081986E-01
4.000000000E+00 9.999999881E-01 3.781843536E-10 3.099604936E-01
4.100000000E+00 9.999999887E-01 3.502760687E-10 3.024004816E-01
4.200000000E+00 9.999999892E-01 3.118224014E-10 2.952004701E-01
4.300000000E+00 9.999999897E-01 2.839107464E-10 2.883353429E-01
4.400000000E+00 9.999999902E-01 2.667413790E-10 2.817822670E-01
4.500000000E+00 9.999999906E-01 2.371593842E-10 2.755204388E-01
4.600000000E+00 9.999999911E-01 2.171921247E-10 2.695308640E-01
4.700000000E+00 9.999999914E-01 2.050318623E-10 2.637961648E-01
4.800000000E+00 9.999999918E-01 1.835867265E-10 2.583004114E-01
4.900000000E+00 9.999999921E-01 1.691033827E-10 2.530289744E-01
5.000000000E+00 9.999999924E-01 1.588935085E-10 2.479683949E-01
5.100000000E+00 9.999999927E-01 1.527234799E-10 2.431062695E-01
5.200000000E+00 9.999999930E-01 1.336755041E-10 2.384311490E-01
5.300000000E+00 9.999999933E-01 1.240311752E-10 2.339324480E-01
5.400000000E+00 9.999999935E-01 1.194799627E-10 2.296003657E-01
5.500000000E+00 9.999999938E-01 1.070411788E-10 2.254258136E-01
5.600000000E+00 9.999999940E-01 9.961144653E-11 2.214003526E-01
5.700000000E+00 9.999999942E-01 9.405139610E-11 2.175161359E-01
5.800000000E+00 9.999999944E-01 9.083620272E-11 2.137658577E-01
5.900000000E+00 9.999999946E-01 8.100631198E-11 2.101427076E-01
6.000000000E+00 9.999999948E-01 7.573748179E-11 2.066403291E-01
6.100000000E+00 9.999999949E-01 7.202898144E-11 2.032527827E-01
6.200000000E+00 9.999999951E-01 6.972420394E-11 1.999745120E-01
6.300000000E+00 9.999999953E-01 6.243823949E-11 1.968003134E-01
6.400000000E+00 9.999999954E-01 5.862978719E-11 1.937253085E-01
6.500000000E+00 9.999999956E-01 5.564402994E-11 1.907449192E-01
6.600000000E+00 9.999999957E-01 5.397062133E-11 1.878548446E-01
6.700000000E+00 9.999999958E-01 4.892105459E-11 1.850510410E-01
6.800000000E+00 9.999999959E-01 4.612175262E-11 1.823297021E-01
6.900000000E+00 9.999999961E-01 4.350159873E-11 1.796872427E-01
7.000000000E+00 9.999999962E-01 4.208346758E-11 1.771202821E-01
7.100000000E+00 9.999999963E-01 4.090636602E-11 1.746256302E-01
7.200000000E+00 9.999999964E-01 3.678610552E-11 1.722002742E-01
7.300000000E+00 9.999999965E-01 3.481816117E-11 1.698413664E-01
7.400000000E+00 9.999999966E-01 3.302922288E-11 1.675462128E-01
7.500000000E+00 9.999999967E-01 3.215431547E-11 1.653122633E-01
7.600000000E+00 9.999999968E-01 3.131371615E-11 1.631371019E-01
7.700000000E+00 9.999999968E-01 2.818721247E-11 1.610184383E-01
7.800000000E+00 9.999999969E-01 2.677103849E-11 1.589540993E-01
7.900000000E+00 9.999999970E-01 2.543431057E-11 1.569420221E-01
8.000000000E+00 9.999999971E-01 2.478891871E-11 1.549802468E-01
8.100000000E+00 9.999999971E-01 2.418062487E-11 1.530669104E-01
8.200000000E+00 9.999999972E-01 2.195873367E-11 1.512002408E-01
8.300000000E+00 9.999999973E-01 2.092252827E-11 1.493785512E-01
8.400000000E+00 9.999999973E-01 1.994100980E-11 1.476002351E-01
8.500000000E+00 9.999999974E-01 1.926084284E-11 1.458637617E-01
8.600000000E+00 9.999999975E-01 1.881552049E-11 1.441676715E-01
8.700000000E+00 9.999999975E-01 1.838546566E-11 1.425105718E-01
8.800000000E+00 9.999999976E-01 1.657744527E-11 1.408911335E-01
8.900000000E+00 9.999999976E-01 1.584227123E-11 1.393080870E-01
9.000000000E+00 9.999999977E-01 1.514342307E-11 1.377602194E-01
9.100000000E+00 9.999999977E-01 1.471100267E-11 1.362463708E-01
9.200000000E+00 9.999999978E-01 1.439293633E-11 1.347654320E-01
9.300000000E+00 9.999999978E-01 1.408507493E-11 1.333163414E-01
9.400000000E+00 9.999999979E-01 1.269282851E-11 1.318980824E-01
9.500000000E+00 9.999999979E-01 1.215168624E-11 1.305096815E-01
9.600000000E+00 9.999999980E-01 1.163583681E-11 1.291502057E-01
9.700000000E+00 9.999999980E-01 1.125445908E-11 1.278187603E-01
9.800000000E+00 9.999999981E-01 1.102594810E-11 1.265144872E-01
9.900000000E+00 9.999999981E-01 1.080432665E-11 1.252365631E-01
1.000000000E+01 9.999999981E-01 9.852711063E-12 1.239841975E-01
1.010000000E+01 9.999999982E-01 9.457835600E-12 1.227566311E-01
1.020000000E+01 9.999999982E-01 9.080334760E-12 1.215531348E-01
1.030000000E+01 9.999999982E-01 8.719314433E-12 1.203730072E-01
1.040000000E+01 9.999999983E-01 8.510336316E-12 1.192155745E-01
1.050000000E+01 9.999999983E-01 8.349006584E-12 1.180801881E-01
1.060000000E+01 9.999999983E-01 8.192221217E-12 1.169662240E-01
1.070000000E+01 9.999999984E-01 7.462791638E-12 1.158730817E-01
1.080000000E+01 9.999999984E-01 7.181469153E-12 1.148001828E-01
1.090000000E+01 9.999999984E-01 6.911756480E-12 1.137469701E-01
1.100000000E+01 9.999999985E-01 6.653093385E-12 1.127129068E-01
1.110000000E+01 9.999999985E-01 6.494065788E-12 1.116974752E-01
1.120000000E+01 9.999999985E-01 6.378618031E-12 1.107001763E-01
1.130000000E+01 9.999999985E-01 6.266221676E-12 1.097205287E-01
1.140000000E+01 9.999999986E-01 6.156770127E-12 1.087580679E-01
1.150000000E+01 9.999999986E-01 5.553086198E-12 1.078123456E-01
1.160000000E+01 9.999999986E-01 5.358781905E-12 1.068829288E-01
1.170000000E+01 9.999999986E-01 5.171943852E-12 1.059693995E-01
1.180000000E+01 9.999999987E-01 4.995184189E-12 1.050713538E-01
1.190000000E+01 9.999999987E-01 4.911584256E-12 1.041884012E-01
1.200000000E+01 9.999999987E-01 4.830065600E-12 1.033201645E-01
1.210000000E+01 9.999999987E-01 4.750559705E-12 1.024662789E-01
1.220000000E+01 9.999999987E-01 4.359049150E-12 1.016263914E-01
1.230000000E+01 9.999999988E-01 4.214991346E-12 1.008001605E-01
1.240000000E+01 9.999999988E-01 4.076160755E-12 9.998725601E-02
1.250000000E+01 9.999999988E-01 3.942335255E-12 9.918735797E-02
1.260000000E+01 9.999999988E-01 3.813303682E-12 9.840015671E-02
1.270000000E+01 9.999999988E-01 3.748470686E-12 9.762535233E-02
1.280000000E+01 9.999999989E-01 3.690129620E-12 9.686265426E-02
1.290000000E+01 9.999999989E-01 3.633140057E-12 9.611178098E-02
1.300000000E+01 9.999999989E-01 3.577460574E-12 9.537245958E-02
1.310000000E+01 9.999999989E-01 3.254607819E-12 9.464442554E-02
1.320000000E+01 9.999999989E-01 3.154185981E-12 9.392742232E-02
1.330000000E+01 9.999999989E-01 3.057164832E-12 9.322120110E-02
1.340000000E+01 9.999999990E-01 2.963409469E-12 9.252552049E-02
1.350000000E+01 9.999999990E-01 2.883724943E-12 9.184014627E-02
1.360000000E+01 9.999999990E-01 2.841473134E-12 9.116485107E-02
1.370000000E+01 9.999999990E-01 2.800143166E-12 9.049941420E-02
1.380000000E+01 9.999999990E-01 2.759708417E-12 8.984362135E-02
1.390000000E+01 9.999999990E-01 2.720143217E-12 8.919726436E-02
1.400000000E+01 9.999999991E-01 2.478444140E-12 8.856014104E-02
1.410000000E+01 9.999999991E-01 2.406875397E-12 8.793205493E-02
1.420000000E+01 9.999999991E-01 2.337577147E-12 8.731281511E-02
1.430000000E+01 9.999999991E-01 2.270464961E-12 8.670223598E-02
1.440000000E+01 9.999999991E-01 2.205458056E-12 8.610013712E-02
1.450000000E+01 9.999999991E-01 2.172934959E-12 8.550634307E-02
1.460000000E+01 9.999999991E-01 2.143270666E-12 8.492068319E-02
1.470000000E+01 9.999999991E-01 2.114209705E-12 8.434299147E-02
1.480000000E+01 9.999999992E-01 2.085735825E-12 8.377310639E-02
1.490000000E+01 9.999999992E-01 1.919994065E-12 8.321087078E-02
1.500000000E+01 9.999999992E-01 1.867998160E-12 8.265613164E-02
1.510000000E+01 9.999999992E-01 1.817552771E-12 8.210874004E-02
1.520000000E+01 9.999999992E-01 1.768603657E-12 8.156855096E-02
1.530000000E+01 9.999999992E-01 1.721098782E-12 8.103542318E-02
1.540000000E+01 9.999999992E-01 1.674988214E-12 8.050921913E-02
1.550000000E+01 9.999999992E-01 1.653033027E-12 7.998980481E-02
1.560000000E+01 9.999999992E-01 1.631908221E-12 7.947704965E-02
1.570000000E+01 9.999999992E-01 1.611185787E-12 7.897082641E-02
1.580000000E+01 9.999999993E-01 1.590855571E-12 7.847101105E-02
1.590000000E+01 9.999999993E-01 1.570907736E-12 7.797748268E-02
1.600000000E+01 9.999999993E-01 1.433162929E-12 7.749012341E-02
1.610000000E+01 9.999999993E-01 1.396752591E-12 7.700881830E-02
1.620000000E+01 9.999999993E-01 1.361356845E-12 7.653345522E-02
1.630000000E+01 9.999999993E-01 1.326942543E-12 7.606392482E-02
1.640000000E+01 9.999999993E-01 1.293477798E-12 7.560012040E-02
1.650000000E+01 9.999999993E-01 1.267136327E-12 7.514193785E-02
1.660000000E+01 9.999999993E-01 1.251915608E-12 7.468927558E-02
1.670000000E+01 9.999999993E-01 1.236967496E-12 7.424203441E-02
1.680000000E+01 9.999999993E-01 1.222285519E-12 7.380011753E-02
1.690000000E+01 9.999999993E-01 1.207863398E-12 7.336343045E-02
1.700000000E+01 9.999999994E-01 1.193695035E-12 7.293188086E-02
1.710000000E+01 9.999999994E-01 1.088230097E-12 7.250537863E-02
1.720000000E+01 9.999999994E-01 1.062013174E-12 7.208383573E-02
1.730000000E+01 9.999999994E-01 1.036483362E-12 7.166716616E-02
1.740000000E+01 9.999999994E-01 1.011619581E-12 7.125528590E-02
1.750000000E+01 9.999999994E-01 9.874015055E-13 7.084811283E-02
1.760000000E+01 9.999999994E-01 9.639461273E-13 7.044556674E-02
1.770000000E+01 9.999999994E-01 9.530848492E-13 7.004756919E-02
1.780000000E+01 9.999999994E-01 9.424061116E-13 6.965404352E-02
1.790000000E+01 9.999999994E-01 9.319058469E-13 6.926491478E-02
1.800000000E+01 9.999999994E-01 9.215801000E-13 6.888010970E-02
1.810000000E+01 9.999999994E-01 9.114250248E-13 6.849955661E-02
1.820000000E+01 9.999999994E-01 8.394291938E-13 6.812318542E-02
1.830000000E+01 9.999999994E-01 8.204679290E-13 6.775092757E-02
1.840000000E+01 9.999999995E-01 8.019736560E-13 6.738271601E-02
1.850000000E+01 9.999999995E-01 7.839329017E-13 6.701848511E-02
1.860000000E+01 9.999999995E-01 7.663326451E-13 6.665817068E-02
1.870000000E+01 9.999999995E-01 7.491602999E-13 6.630170987E-02
1.880000000E+01 9.999999995E-01 7.324036975E-13 6.594904120E-02
1.890000000E+01 9.999999995E-01 7.234620050E-13 6.560010448E-02
1.900000000E+01 9.999999995E-01 7.158666559E-13 6.525484077E-02
1.910000000E+01 9.999999995E-01 7.083902930E-13 6.491319239E-02
1.920000000E+01 9.999999995E-01 7.010304438E-13 6.457510284E-02
1.930000000E+01 9.999999995E-01 6.937846997E-13 6.424051682E-02
1.940000000E+01 9.999999995E-01 6.866507142E-13 6.390938013E-02
1.950000000E+01 9.999999995E-01 6.297646911E-13 6.358163972E-02
1.960000000E+01 9.999999995E-01 6.164490627E-13 6.325724360E-02
1.970000000E+01 9.999999995E-01 6.034400618E-13 6.293614084E-02
1.980000000E+01 9.999999995E-01 5.907294171E-13 6.261828154E-02
1.990000000E+01 9.999999995E-01 5.783091168E-13 6.230361681E-02
2.000000000E+01 9.999999995E-01 5.661713992E-13 6.199209873E-02
2.010000000E+01 9.999999995E-01 5.543087438E-13 6.168368033E-02
2.020000000E+01 9.999999995E-01 5.481590865E-13 6.137831557E-02
2.030000000E+01 9.999999995E-01 5.427718063E-13 6.107595934E-02
2.040000000E+01 9.999999996E-01 5.374635565E-13 6.077656738E-02
2.050000000E+01 9.999999996E-01 5.322327987E-13 6.048009632E-02
2.060000000E+01 9.999999996E-01 5.270780320E-13 6.018650362E-02
2.070000000E+01 9.999999996E-01 5.219977915E-13 5.989574756E-02
2.080000000E+01 9.999999996E-01 4.813025838E-13 5.960778724E-02
2.090000000E+01 9.999999996E-01 4.717714080E-13 5.932258252E-02
2.100000000E+01 9.999999996E-01 4.624460852E-13 5.904009403E-02
2.110000000E+01 9.999999996E-01 4.533214045E-13 5.876028316E-02
2.120000000E+01 9.999999996E-01 4.443923081E-13 5.848311201E-02
2.130000000E+01 9.999999996E-01 4.356538868E-13 5.820854341E-02
2.140000000E+01 9.999999996E-01 4.271013745E-13 5.793654087E-02
2.150000000E+01 9.999999996E-01 4.187780893E-13 5.766706859E-02
2.160000000E+01 9.999999996E-01 4.149094903E-13 5.740009142E-02
2.170000000E+01 9.999999996E-01 4.110942509E-13 5.713557487E-02
2.180000000E+01 9.999999996E-01 4.073313942E-13 5.687348507E-02
2.190000000E+01 9.999999996E-01 4.036199658E-13 5.661378879E-02
2.200000000E+01 9.999999996E-01 3.999590326E-13 5.635645339E-02
2.210000000E+01 9.999999996E-01 3.963476829E-13 5.610144681E-02
2.220000000E+01 9.999999996E-01 3.927850252E-13 5.584873759E-02
2.230000000E+01 9.999999996E-01 3.600823408E-13 5.559829482E-02
2.240000000E+01 9.999999996E-01 3.534087142E-13 5.535008815E-02
2.250000000E+01 9.999999996E-01 3.468697744E-13 5.510408776E-02
2.260000000E+01 9.999999996E-01 3.404623359E-13 5.486026436E-02
2.270000000E+01 9.999999996E-01 3.341833006E-13 5.461858919E-02
2.280000000E+01 9.999999996E-01 3.280296556E-13 5.437903397E-02
2.290000000E+01 9.999999996E-01 3.219984700E-13 5.414157094E-02
2.300000000E+01 9.999999996E-01 3.166673522E-13 5.390617281E-02
2.310000000E+01 9.999999997E-01 3.139315779E-13 5.367281275E-02
2.320000000E+01 9.999999997E-01 3.112311038E-13 5.344146442E-02
2.330000000E+01 9.999999997E-01 3.085653250E-13 5.321210191E-02
2.340000000E+01 9.999999997E-01 3.059336498E-13 5.298469977E-02
2.350000000E+01 9.999999997E-01 3.033354989E-13 5.275923296E-02
2.360000000E+01 9.999999997E-01 3.007703054E-13 5.253567689E-02
2.370000000E+01 9.999999997E-01 2.982375141E-13 5.231400737E-02
2.380000000E+01 9.999999997E-01 2.745690427E-13 5.209420061E-02
2.390000000E+01 9.999999997E-01 2.698107919E-13 5.187623325E-02
2.400000000E+01 9.999999997E-01 2.651425206E-13 5.166008227E-02
2.410000000E+01 9.999999997E-01 2.605622333E-13 5.144572509E-02
2.420000000E+01 9.999999997E-01 2.560679862E-13 5.123313945E-02
2.430000000E+01 9.999999997E-01 2.516578852E-13 5.102230348E-02
2.440000000E+01 9.999999997E-01 2.473300848E-13 5.081319568E-02
2.450000000E+01 9.999999997E-01 2.430827867E-13 5.060579488E-02
2.460000000E+01 9.999999997E-01 2.395539627E-13 5.040008027E-02
2.470000000E+01 9.999999997E-01 2.376181811E-13 5.019603136E-02
2.480000000E+01 9.999999997E-01 2.357057689E-13 4.999362801E-02
2.490000000E+01 9.999999997E-01 2.338163515E-13 4.979285038E-02
2.500000000E+01 9.999999997E-01 2.319495617E-13 4.959367898E-02
2.510000000E+01 9.999999997E-01 2.301050397E-13 4.939609460E-02
2.520000000E+01 9.999999997E-01 2.282824327E-13 4.920007836E-02
2.530000000E+01 9.999999997E-01 2.264813949E-13 4.900561164E-02
2.540000000E+01 9.999999997E-01 2.093707895E-13 4.881267616E-02
2.550000000E+01 9.999999997E-01 2.059643616E-13 4.862125391E-02
2.560000000E+01 9.999999997E-01 2.026183669E-13 4.843132713E-02
2.570000000E+01 9.999999997E-01 1.993315478E-13 4.824287839E-02
2.580000000E+01 9.999999997E-01 1.961026776E-13 4.805589049E-02
2.590000000E+01 9.999999997E-01 1.929305587E-13 4.787034651E-02
2.600000000E+01 9.999999997E-01 1.898140229E-13 4.768622979E-02
2.610000000E+01 9.999999997E-01 1.867519294E-13 4.750352393E-02
2.620000000E+01 9.999999997E-01 1.837431651E-13 4.732221277E-02
2.630000000E+01 9.999999997E-01 1.813744789E-13 4.714228040E-02
2.640000000E+01 9.999999997E-01 1.800030322E-13 4.696371116E-02
2.650000000E+01 9.999999997E-01 1.786470820E-13 4.678648961E-02
2.660000000E+01 9.999999997E-01 1.773063957E-13 4.661060055E-02
2.670000000E+01 9.999999997E-01 1.759807450E-13 4.643602901E-02
2.680000000E+01 9.999999997E-01 1.746699061E-13 4.626276025E-02
2.690000000E+01 9.999999997E-01 1.733736589E-13 4.609077972E-02
2.700000000E+01 9.999999997E-01 1.720917878E-13 4.592007313E-02
2.710000000E+01 9.999999997E-01 1.708240810E-13 4.575062637E-02
2.720000000E+01 9.999999997E-01 1.571023557E-13 4.558242554E-02
2.730000000E+01 9.999999998E-01 1.546838270E-13 4.541545694E-02
2.740000000E+01 9.999999998E-01 1.523055561E-13 4.524970710E-02
2.750000000E+01 9.999999998E-01 1.499667585E-13 4.508516271E-02
2.760000000E+01 9.999999998E-01 1.476666675E-13 4.492181067E-02
2.770000000E+01 9.999999998E-01 1.454045336E-13 4.475963807E-02
2.780000000E+01 9.999999998E-01 1.431796244E-13 4.459863218E-02
2.790000000E+01 9.999999998E-01 1.409912237E-13 4.443878045E-02
2.800000000E+01 9.999999998E-01 1.388386316E-13 4.428007052E-02
2.810000000E+01 9.999999998E-01 1.369903945E-13 4.412249020E-02
2.820000000E+01 9.999999998E-01 1.360205541E-13 4.396602747E-02
2.830000000E+01 9.999999998E-01 1.350609764E-13 4.381067048E-02
2.840000000E+01 9.999999998E-01 1.341115173E-13 4.365640756E-02
2.850000000E+01 9.999999998E-01 1.331720350E-13 4.350322718E-02
2.860000000E+01 9.999999998E-01 1.322423901E-13 4.335111799E-02
2.870000000E+01 9.999999998E-01 1.313224458E-13 4.320006880E-02
2.880000000E+01 9.999999998E-01 1.304120677E-13 4.305006856E-02
2.890000000E+01 9.999999998E-01 1.295111235E-13 4.290110639E-02
2.900000000E+01 9.999999998E-01 1.286194833E-13 4.275317154E-02
2.910000000E+01 9.999999998E-01 1.180711380E-13 4.260625342E-02
2.920000000E+01 9.999999998E-01 1.163623033E-13 4.246034160E-02
2.930000000E+01 9.999999998E-01 1.146801186E-13 4.231542575E-02
2.940000000E+01 9.999999998E-01 1.130240976E-13 4.217149573E-02
2.950000000E+01 9.999999998E-01 1.113937646E-13 4.202854151E-02
2.960000000E+01 9.999999998E-01 1.097886534E-13 4.188655320E-02
2.970000000E+01 9.999999998E-01 1.082083082E-13 4.174552103E-02
2.980000000E+01 9.999999998E-01 1.066522825E-13 4.160543539E-02
2.990000000E+01 9.999999998E-01 1.051201390E-13 4.146628678E-02
3.000000000E+01 9.999999998E-01 1.036114500E-13 4.132806582E-02
3.010000000E+01 9.999999998E-01 1.028191013E-13 4.119076328E-02
3.020000000E+01 9.999999998E-01 1.021393074E-13 4.105437002E-02
3.030000000E+01 9.999999998E-01 1.014662331E-13 4.091887705E-02
3.040000000E+01 9.999999998E-01 1.007997900E-13 4.078427548E-02
3.050000000E+01 9.999999998E-01 1.001398914E-13 4.065055654E-02
3.060000000E+01 9.999999998E-01 9.948645174E-14 4.051771159E-02
3.070000000E+01 9.999999998E-01 9.883938710E-14 4.038573207E-02
3.080000000E+01 9.999999998E-01 9.819861480E-14 4.025460956E-02
3.090000000E+01 9.999999998E-01 9.756405353E-14 4.012433575E-02
3.100000000E+01 9.999999998E-01 9.693562325E-14 3.999490241E-02
3.110000000E+01 9.999999998E-01 8.908343180E-14 3.986630143E-02
3.120000000E+01 9.999999998E-01 8.787750957E-14 3.973852483E-02
3.130000000E+01 9.999999998E-01 8.668919190E-14 3.961156468E-02
3.140000000E+01 9.999999998E-01 8.551817800E-14 3.948541320E-02
3.150000000E+01 9.999999998E-01 8.436417306E-14 3.936006269E-02
3.160000000E+01 9.999999998E-01 8.322688810E-14 3.923550552E-02
3.170000000E+01 9.999999998E-01 8.210603989E-14 3.911173421E-02
3.180000000E+01 9.999999998E-01 8.100135073E-14 3.898874134E-02
3.190000000E+01 9.999999998E-01 7.991254843E-14 3.886651958E-02
3.200000000E+01 9.999999998E-01 7.883936610E-14 3.874506171E-02
3.210000000E+01 9.999999998E-01 7.785505809E-14 3.862436058E-02
3.220000000E+01 9.999999998E-01 7.737223719E-14 3.850440915E-02
3.230000000E+01 9.999999998E-01 7.689389375E-14 3.838520045E-02
3.240000000E+01 9.999999998E-01 7.641997257E-14 3.826672761E-02
3.250000000E+01 9.999999998E-01 7.595041932E-14 3.814898383E-02
3.260000000E+01 9.999999998E-01 7.548518048E-14 3.803196241E-02
3.270000000E+01 9.999999998E-01 7.502420336E-14 3.791565672E-02
