# 12/05/2022 
# Density retrieved from www.chemicool.com/densities.html 
# Includes the real (n) and complex (k) part of the  refractive index. 
# Elements, Ni93V7  
# Nominal density, g cm-3 =  [8.9] 
#    E [keV]      n       k    Wavelength [nm] 
2.000000000E+00 9.995630393E-01 8.682100520E-05 6.199209873E-01
2.100000000E+00 9.996020366E-01 7.086956646E-05 5.904009403E-01
2.200000000E+00 9.996369939E-01 5.907404220E-05 5.635645339E-01
2.300000000E+00 9.996677671E-01 5.035738423E-05 5.390617281E-01
2.400000000E+00 9.996948440E-01 4.383163651E-05 5.166008227E-01
2.500000000E+00 9.997188834E-01 3.731733755E-05 4.959367898E-01
2.600000000E+00 9.997401259E-01 3.359263359E-05 4.768622979E-01
2.700000000E+00 9.997592709E-01 2.832102146E-05 4.592007313E-01
2.800000000E+00 9.997761825E-01 2.606737530E-05 4.428007052E-01
2.900000000E+00 9.997916386E-01 2.194547327E-05 4.275317154E-01
3.000000000E+00 9.998053047E-01 2.045084984E-05 4.132806582E-01
3.100000000E+00 9.998178628E-01 1.720202921E-05 3.999490241E-01
3.200000000E+00 9.998290730E-01 1.609945128E-05 3.874506171E-01
3.300000000E+00 9.998395809E-01 1.363260308E-05 3.757096893E-01
3.400000000E+00 9.998489055E-01 1.270959624E-05 3.646594043E-01
3.500000000E+00 9.998577133E-01 1.093033269E-05 3.542405642E-01
3.600000000E+00 9.998655789E-01 1.007890434E-05 3.444005485E-01
3.700000000E+00 9.998730013E-01 8.853735463E-06 3.350924256E-01
3.800000000E+00 9.998797356E-01 8.020546513E-06 3.262742038E-01
3.900000000E+00 9.998858240E-01 7.614509641E-06 3.179081986E-01
4.000000000E+00 9.998917685E-01 6.586472264E-06 3.099604936E-01
4.100000000E+00 9.998970555E-01 6.116661822E-06 3.024004816E-01
4.200000000E+00 9.999020996E-01 5.482360895E-06 2.952004701E-01
4.300000000E+00 9.999067240E-01 5.016228099E-06 2.883353429E-01
4.400000000E+00 9.999109559E-01 4.721248843E-06 2.817822670E-01
4.500000000E+00 9.999150735E-01 4.220679228E-06 2.755204388E-01
4.600000000E+00 9.999188374E-01 3.878867245E-06 2.695308640E-01
4.700000000E+00 9.999222889E-01 3.666064907E-06 2.637961648E-01
4.800000000E+00 9.999256917E-01 3.300173354E-06 2.583004114E-01
4.900000000E+00 9.999288018E-01 3.050045416E-06 2.530289744E-01
5.000000000E+00 9.999316750E-01 2.871191059E-06 2.479683949E-01
5.100000000E+00 9.999343281E-01 2.759699211E-06 2.431062695E-01
5.200000000E+00 9.999371504E-01 2.434981055E-06 2.384311490E-01
5.300000000E+00 9.999396123E-01 2.266822694E-06 2.339324480E-01
5.400000000E+00 9.999420185E-01 2.181277287E-06 2.296003657E-01
5.500000000E+00 9.999443514E-01 2.486077448E-06 2.254258136E-01
5.600000000E+00 9.999461548E-01 2.323817230E-06 2.214003526E-01
5.700000000E+00 9.999479691E-01 2.194051530E-06 2.175161359E-01
5.800000000E+00 9.999497478E-01 2.119046795E-06 2.137658577E-01
5.900000000E+00 9.999514944E-01 1.905730006E-06 2.101427076E-01
6.000000000E+00 9.999531198E-01 1.788405300E-06 2.066403291E-01
6.100000000E+00 9.999546548E-01 1.704131153E-06 2.032527827E-01
6.200000000E+00 9.999561057E-01 1.649602502E-06 1.999745120E-01
6.300000000E+00 9.999576144E-01 1.491852197E-06 1.968003134E-01
6.400000000E+00 9.999589751E-01 1.406675885E-06 1.937253085E-01
6.500000000E+00 9.999602573E-01 1.338874960E-06 1.907449192E-01
6.600000000E+00 9.999614525E-01 1.298610355E-06 1.878548446E-01
6.700000000E+00 9.999627435E-01 1.188006626E-06 1.850510410E-01
6.800000000E+00 9.999638904E-01 1.124662729E-06 1.823297021E-01
6.900000000E+00 9.999649853E-01 1.065272079E-06 1.796872427E-01
7.000000000E+00 9.999659865E-01 1.031204648E-06 1.771202821E-01
7.100000000E+00 9.999669379E-01 1.002361194E-06 1.746256302E-01
7.200000000E+00 9.999680850E-01 9.109597956E-07 1.722002742E-01
7.300000000E+00 9.999690293E-01 8.655676662E-07 1.698413664E-01
7.400000000E+00 9.999699278E-01 8.241291102E-07 1.675462128E-01
7.500000000E+00 9.999707244E-01 8.022988457E-07 1.653122633E-01
7.600000000E+00 9.999714898E-01 7.813246204E-07 1.631371019E-01
7.700000000E+00 9.999726531E-01 7.107789873E-07 1.610184383E-01
7.800000000E+00 9.999734785E-01 6.775008519E-07 1.589540993E-01
7.900000000E+00 9.999742680E-01 6.460436297E-07 1.569420221E-01
8.000000000E+00 9.999749098E-01 6.296999296E-07 1.549802468E-01
8.100000000E+00 9.999761480E-01 5.951903536E-07 1.530669104E-01
8.200000000E+00 9.999769222E-01 5.661150377E-07 1.512002408E-01
8.300000000E+00 9.999787023E-01 5.392064087E-07 1.493785512E-01
8.400000000E+00 9.999791742E-01 3.371852851E-06 1.476002351E-01
8.500000000E+00 9.999783559E-01 3.201403313E-06 1.458637617E-01
8.600000000E+00 9.999788563E-01 3.127384930E-06 1.441676715E-01
8.700000000E+00 9.999793396E-01 3.055904207E-06 1.425105718E-01
8.800000000E+00 9.999790651E-01 2.816810383E-06 1.408911335E-01
8.900000000E+00 9.999793039E-01 2.701674244E-06 1.393080870E-01
9.000000000E+00 9.999795424E-01 2.592065535E-06 1.377602194E-01
9.100000000E+00 9.999799259E-01 2.520896387E-06 1.362463708E-01
9.200000000E+00 9.999803599E-01 2.466392129E-06 1.347654320E-01
9.300000000E+00 9.999807800E-01 2.413636603E-06 1.333163414E-01
9.400000000E+00 9.999808832E-01 2.222466082E-06 1.318980824E-01
9.500000000E+00 9.999812071E-01 2.140671750E-06 1.305096815E-01
9.600000000E+00 9.999815234E-01 2.062504651E-06 1.291502057E-01
9.700000000E+00 9.999818628E-01 2.001927469E-06 1.278187603E-01
9.800000000E+00 9.999822310E-01 1.961280253E-06 1.265144872E-01
9.900000000E+00 9.999825882E-01 1.921858540E-06 1.252365631E-01
1.000000000E+01 9.999827942E-01 1.778460830E-06 1.239841975E-01
1.010000000E+01 9.999830949E-01 1.714762288E-06 1.227566311E-01
1.020000000E+01 9.999833880E-01 1.653758520E-06 1.215531348E-01
1.030000000E+01 9.999836736E-01 1.595313598E-06 1.203730072E-01
1.040000000E+01 9.999839780E-01 1.558771378E-06 1.192155745E-01
1.050000000E+01 9.999842817E-01 1.529221880E-06 1.180801881E-01
1.060000000E+01 9.999845769E-01 1.500504737E-06 1.169662240E-01
1.070000000E+01 9.999847831E-01 1.384142134E-06 1.158730817E-01
1.080000000E+01 9.999850435E-01 1.336592307E-06 1.148001828E-01
1.090000000E+01 9.999852973E-01 1.290943373E-06 1.137469701E-01
1.100000000E+01 9.999855447E-01 1.247105066E-06 1.127129068E-01
1.110000000E+01 9.999857985E-01 1.218651840E-06 1.116974752E-01
1.120000000E+01 9.999860509E-01 1.196987350E-06 1.107001763E-01
1.130000000E+01 9.999862967E-01 1.175895475E-06 1.097205287E-01
1.140000000E+01 9.999865361E-01 1.155356211E-06 1.087580679E-01
1.150000000E+01 9.999867168E-01 1.058005879E-06 1.078123456E-01
1.160000000E+01 9.999869344E-01 1.024442725E-06 1.068829288E-01
1.170000000E+01 9.999871467E-01 9.921263202E-07 1.059693995E-01
1.180000000E+01 9.999873542E-01 9.614602440E-07 1.050713538E-01
1.190000000E+01 9.999875659E-01 9.453691432E-07 1.041884012E-01
1.200000000E+01 9.999877722E-01 9.296786415E-07 1.033201645E-01
1.210000000E+01 9.999879735E-01 9.143755507E-07 1.024662789E-01
1.220000000E+01 9.999881439E-01 8.493574851E-07 1.016263914E-01
1.230000000E+01 9.999883299E-01 8.238815568E-07 1.008001605E-01
1.240000000E+01 9.999885114E-01 7.992996582E-07 9.998725601E-02
1.250000000E+01 9.999886888E-01 7.755744369E-07 9.918735797E-02
1.260000000E+01 9.999888622E-01 7.526703642E-07 9.840015671E-02
1.270000000E+01 9.999890365E-01 7.400634481E-07 9.762535233E-02
1.280000000E+01 9.999892071E-01 7.285451266E-07 9.686265426E-02
1.290000000E+01 9.999893738E-01 7.172936334E-07 9.611178098E-02
1.300000000E+01 9.999895366E-01 7.063007902E-07 9.537245958E-02
1.310000000E+01 9.999896784E-01 6.516790509E-07 9.464442554E-02
1.320000000E+01 9.999898309E-01 6.334576381E-07 9.392742232E-02
1.330000000E+01 9.999899800E-01 6.158326953E-07 9.322120110E-02
1.340000000E+01 9.999901259E-01 5.987809640E-07 9.252552049E-02
1.350000000E+01 9.999902693E-01 5.840674715E-07 9.184014627E-02
1.360000000E+01 9.999904119E-01 5.755098220E-07 9.116485107E-02
1.370000000E+01 9.999905513E-01 5.671388816E-07 9.049941420E-02
1.380000000E+01 9.999906878E-01 5.589492579E-07 8.984362135E-02
1.390000000E+01 9.999908213E-01 5.509357522E-07 8.919726436E-02
1.400000000E+01 9.999909419E-01 5.090769658E-07 8.856014104E-02
1.410000000E+01 9.999910681E-01 4.957583361E-07 8.793205493E-02
1.420000000E+01 9.999911917E-01 4.828480974E-07 8.731281511E-02
1.430000000E+01 9.999913127E-01 4.703313231E-07 8.670223598E-02
1.440000000E+01 9.999914313E-01 4.581937250E-07 8.610013712E-02
1.450000000E+01 9.999915489E-01 4.515255941E-07 8.550634307E-02
1.460000000E+01 9.999916643E-01 4.453614944E-07 8.492068319E-02
1.470000000E+01 9.999917773E-01 4.393227644E-07 8.434299147E-02
1.480000000E+01 9.999918881E-01 4.334060270E-07 8.377310639E-02
1.490000000E+01 9.999919915E-01 4.039216202E-07 8.321087078E-02
1.500000000E+01 9.999920969E-01 3.940033817E-07 8.265613164E-02
1.510000000E+01 9.999922003E-01 3.843710546E-07 8.210874004E-02
1.520000000E+01 9.999923016E-01 3.750148072E-07 8.156855096E-02
1.530000000E+01 9.999924010E-01 3.659252038E-07 8.103542318E-02
1.540000000E+01 9.999924985E-01 3.570931858E-07 8.050921913E-02
1.550000000E+01 9.999925950E-01 3.524295703E-07 7.998980481E-02
1.560000000E+01 9.999926896E-01 3.479257243E-07 7.947704965E-02
1.570000000E+01 9.999927824E-01 3.435076647E-07 7.897082641E-02
1.580000000E+01 9.999928735E-01 3.391732265E-07 7.847101105E-02
1.590000000E+01 9.999929629E-01 3.349203128E-07 7.797748268E-02
1.600000000E+01 9.999930474E-01 3.100250519E-07 7.749012341E-02
1.610000000E+01 9.999931330E-01 3.029132041E-07 7.700881830E-02
1.620000000E+01 9.999932170E-01 2.959926940E-07 7.653345522E-02
1.630000000E+01 9.999932995E-01 2.892573806E-07 7.606392482E-02
1.640000000E+01 9.999933805E-01 2.827013538E-07 7.560012040E-02
1.650000000E+01 9.999934602E-01 2.774069059E-07 7.514193785E-02
1.660000000E+01 9.999935388E-01 2.740747211E-07 7.468927558E-02
1.670000000E+01 9.999936159E-01 2.708022164E-07 7.424203441E-02
1.680000000E+01 9.999936917E-01 2.675879753E-07 7.380011753E-02
1.690000000E+01 9.999937662E-01 2.644306227E-07 7.336343045E-02
1.700000000E+01 9.999938393E-01 2.613288240E-07 7.293188086E-02
1.710000000E+01 9.999939054E-01 2.413690861E-07 7.250537863E-02
1.720000000E+01 9.999939752E-01 2.360581459E-07 7.208383573E-02
1.730000000E+01 9.999940438E-01 2.308822288E-07 7.166716616E-02
1.740000000E+01 9.999941112E-01 2.258372555E-07 7.125528590E-02
1.750000000E+01 9.999941775E-01 2.209192906E-07 7.084811283E-02
1.760000000E+01 9.999942427E-01 2.161497728E-07 7.044556674E-02
1.770000000E+01 9.999943076E-01 2.137143018E-07 7.004756919E-02
1.780000000E+01 9.999943714E-01 2.113197627E-07 6.965404352E-02
1.790000000E+01 9.999944341E-01 2.089652433E-07 6.926491478E-02
1.800000000E+01 9.999944958E-01 2.066498568E-07 6.888010970E-02
1.810000000E+01 9.999945564E-01 2.043727408E-07 6.849955661E-02
1.820000000E+01 9.999946162E-01 1.903004341E-07 6.812318542E-02
1.830000000E+01 9.999946749E-01 1.863539087E-07 6.775092757E-02
1.840000000E+01 9.999947326E-01 1.825018342E-07 6.738271601E-02
1.850000000E+01 9.999947895E-01 1.787415245E-07 6.701848511E-02
1.860000000E+01 9.999948453E-01 1.750703830E-07 6.665817068E-02
1.870000000E+01 9.999949003E-01 1.714858987E-07 6.630170987E-02
1.880000000E+01 9.999949545E-01 1.679856436E-07 6.594904120E-02
1.890000000E+01 9.999950077E-01 1.659814610E-07 6.560010448E-02
1.900000000E+01 9.999950601E-01 1.642388856E-07 6.525484077E-02
1.910000000E+01 9.999951117E-01 1.625236087E-07 6.491319239E-02
1.920000000E+01 9.999951625E-01 1.608350632E-07 6.457510284E-02
1.930000000E+01 9.999952125E-01 1.591726964E-07 6.424051682E-02
1.940000000E+01 9.999952617E-01 1.575359701E-07 6.390938013E-02
1.950000000E+01 9.999953110E-01 1.461913992E-07 6.358163972E-02
1.960000000E+01 9.999953588E-01 1.433554344E-07 6.325724360E-02
1.970000000E+01 9.999954059E-01 1.405829195E-07 6.293614084E-02
1.980000000E+01 9.999954523E-01 1.378721675E-07 6.261828154E-02
1.990000000E+01 9.999954980E-01 1.352215438E-07 6.230361681E-02
2.000000000E+01 9.999955430E-01 1.326294645E-07 6.199209873E-02
2.010000000E+01 9.999955873E-01 1.300943943E-07 6.168368033E-02
2.020000000E+01 9.999956309E-01 1.286777522E-07 6.137831557E-02
2.030000000E+01 9.999956739E-01 1.274131137E-07 6.107595934E-02
2.040000000E+01 9.999957162E-01 1.261670272E-07 6.077656738E-02
2.050000000E+01 9.999957579E-01 1.249391315E-07 6.048009632E-02
2.060000000E+01 9.999957989E-01 1.237290744E-07 6.018650362E-02
2.070000000E+01 9.999958394E-01 1.225365120E-07 5.989574756E-02
2.080000000E+01 9.999958803E-01 1.142407130E-07 5.960778724E-02
2.090000000E+01 9.999959198E-01 1.121652117E-07 5.932258252E-02
2.100000000E+01 9.999959587E-01 1.101332595E-07 5.904009403E-02
2.110000000E+01 9.999959970E-01 1.081437699E-07 5.876028316E-02
2.120000000E+01 9.999960348E-01 1.061956881E-07 5.848311201E-02
2.130000000E+01 9.999960721E-01 1.042879898E-07 5.820854341E-02
2.140000000E+01 9.999961088E-01 1.024196806E-07 5.793654087E-02
2.150000000E+01 9.999961451E-01 1.005993605E-07 5.766706859E-02
2.160000000E+01 9.999961807E-01 9.967004112E-08 5.740009142E-02
2.170000000E+01 9.999962158E-01 9.875353986E-08 5.713557487E-02
2.180000000E+01 9.999962504E-01 9.784962206E-08 5.687348507E-02
2.190000000E+01 9.999962846E-01 9.695805839E-08 5.661378879E-02
2.200000000E+01 9.999963183E-01 9.607862476E-08 5.635645339E-02
2.210000000E+01 9.999963516E-01 9.521110212E-08 5.610144681E-02
2.220000000E+01 9.999963843E-01 9.435527633E-08 5.584873759E-02
2.230000000E+01 9.999964178E-01 8.752678803E-08 5.559829482E-02
2.240000000E+01 9.999964499E-01 8.603648176E-08 5.535008815E-02
2.250000000E+01 9.999964815E-01 8.457541318E-08 5.510408776E-02
2.260000000E+01 9.999965127E-01 8.314290050E-08 5.486026436E-02
2.270000000E+01 9.999965435E-01 8.173828051E-08 5.461858919E-02
2.280000000E+01 9.999965739E-01 8.036090805E-08 5.437903397E-02
2.290000000E+01 9.999966038E-01 7.901015539E-08 5.414157094E-02
2.300000000E+01 9.999966334E-01 7.780441868E-08 5.390617281E-02
2.310000000E+01 9.999966625E-01 7.713224542E-08 5.367281275E-02
2.320000000E+01 9.999966912E-01 7.646874532E-08 5.344146442E-02
2.330000000E+01 9.999967195E-01 7.581376979E-08 5.321210191E-02
2.340000000E+01 9.999967475E-01 7.516717342E-08 5.298469977E-02
2.350000000E+01 9.999967751E-01 7.452881391E-08 5.275923296E-02
2.360000000E+01 9.999968024E-01 7.389855193E-08 5.253567689E-02
2.370000000E+01 9.999968293E-01 7.327625110E-08 5.231400737E-02
2.380000000E+01 9.999968570E-01 6.822121208E-08 5.209420061E-02
2.390000000E+01 9.999968834E-01 6.713431956E-08 5.187623325E-02
2.400000000E+01 9.999969094E-01 6.606740952E-08 5.166008227E-02
2.410000000E+01 9.999969351E-01 6.502004503E-08 5.144572509E-02
2.420000000E+01 9.999969605E-01 6.399180033E-08 5.123313945E-02
2.430000000E+01 9.999969856E-01 6.298226052E-08 5.102230348E-02
2.440000000E+01 9.999970104E-01 6.199102123E-08 5.081319568E-02
2.450000000E+01 9.999970348E-01 6.101768833E-08 5.060579488E-02
2.460000000E+01 9.999970590E-01 6.019608021E-08 5.040008027E-02
2.470000000E+01 9.999970827E-01 5.970964923E-08 5.019603136E-02
2.480000000E+01 9.999971062E-01 5.922909062E-08 4.999362801E-02
2.490000000E+01 9.999971294E-01 5.875431025E-08 4.979285038E-02
2.500000000E+01 9.999971523E-01 5.828521584E-08 4.959367898E-02
2.510000000E+01 9.999971750E-01 5.782171695E-08 4.939609460E-02
2.520000000E+01 9.999971973E-01 5.736372496E-08 4.920007836E-02
2.530000000E+01 9.999972194E-01 5.691115296E-08 4.900561164E-02
2.540000000E+01 9.999972422E-01 5.317366476E-08 4.881267616E-02
2.550000000E+01 9.999972639E-01 5.237809335E-08 4.862125391E-02
2.560000000E+01 9.999972853E-01 5.159624622E-08 4.843132713E-02
2.570000000E+01 9.999973065E-01 5.082784180E-08 4.824287839E-02
2.580000000E+01 9.999973275E-01 5.007260528E-08 4.805589049E-02
2.590000000E+01 9.999973482E-01 4.933026843E-08 4.787034651E-02
2.600000000E+01 9.999973686E-01 4.860056940E-08 4.768622979E-02
2.610000000E+01 9.999973888E-01 4.788325258E-08 4.750352393E-02
2.620000000E+01 9.999974088E-01 4.717806841E-08 4.732221277E-02
2.630000000E+01 9.999974286E-01 4.661093281E-08 4.714228040E-02
2.640000000E+01 9.999974480E-01 4.625848846E-08 4.696371116E-02
2.650000000E+01 9.999974672E-01 4.591002651E-08 4.678648961E-02
2.660000000E+01 9.999974862E-01 4.556548719E-08 4.661060055E-02
2.670000000E+01 9.999975050E-01 4.522481185E-08 4.643602901E-02
2.680000000E+01 9.999975236E-01 4.488794291E-08 4.626276025E-02
2.690000000E+01 9.999975420E-01 4.455482389E-08 4.609077972E-02
2.700000000E+01 9.999975602E-01 4.422539934E-08 4.592007313E-02
2.710000000E+01 9.999975781E-01 4.389961482E-08 4.575062637E-02
2.720000000E+01 9.999975968E-01 4.080920962E-08 4.558242554E-02
2.730000000E+01 9.999976144E-01 4.022888215E-08 4.541545694E-02
2.740000000E+01 9.999976319E-01 3.965796673E-08 4.524970710E-02
2.750000000E+01 9.999976492E-01 3.909628229E-08 4.508516271E-02
2.760000000E+01 9.999976663E-01 3.854365186E-08 4.492181067E-02
2.770000000E+01 9.999976832E-01 3.799990241E-08 4.475963807E-02
2.780000000E+01 9.999976999E-01 3.746486480E-08 4.459863218E-02
2.790000000E+01 9.999977164E-01 3.693837364E-08 4.443878045E-02
2.800000000E+01 9.999977328E-01 3.642026722E-08 4.428007052E-02
2.810000000E+01 9.999977490E-01 3.597016352E-08 4.412249020E-02
2.820000000E+01 9.999977649E-01 3.571550830E-08 4.396602747E-02
2.830000000E+01 9.999977807E-01 3.546354783E-08 4.381067048E-02
2.840000000E+01 9.999977963E-01 3.521424422E-08 4.365640756E-02
2.850000000E+01 9.999978117E-01 3.496756026E-08 4.350322718E-02
2.860000000E+01 9.999978270E-01 3.472345936E-08 4.335111799E-02
2.870000000E+01 9.999978421E-01 3.448190559E-08 4.320006880E-02
2.880000000E+01 9.999978571E-01 3.424286364E-08 4.305006856E-02
2.890000000E+01 9.999978719E-01 3.400629880E-08 4.290110639E-02
2.900000000E+01 9.999978865E-01 3.377217695E-08 4.275317154E-02
2.910000000E+01 9.999979018E-01 3.134000659E-08 4.260625342E-02
2.920000000E+01 9.999979163E-01 3.092048524E-08 4.246034160E-02
2.930000000E+01 9.999979305E-01 3.050734260E-08 4.231542575E-02
2.940000000E+01 9.999979447E-01 3.010046374E-08 4.217149573E-02
2.950000000E+01 9.999979586E-01 2.969973614E-08 4.202854151E-02
2.960000000E+01 9.999979725E-01 2.930504965E-08 4.188655320E-02
2.970000000E+01 9.999979862E-01 2.891629643E-08 4.174552103E-02
2.980000000E+01 9.999979998E-01 2.853337087E-08 4.160543539E-02
2.990000000E+01 9.999980132E-01 2.815616960E-08 4.146628678E-02
3.000000000E+01 9.999980265E-01 2.778459134E-08 4.132806582E-02
3.010000000E+01 9.999980396E-01 2.757636926E-08 4.119076328E-02
3.020000000E+01 9.999980525E-01 2.739404666E-08 4.105437002E-02
3.030000000E+01 9.999980654E-01 2.721352625E-08 4.091887705E-02
3.040000000E+01 9.999980781E-01 2.703478436E-08 4.078427548E-02
3.050000000E+01 9.999980907E-01 2.685779771E-08 4.065055654E-02
3.060000000E+01 9.999981031E-01 2.668254338E-08 4.051771159E-02
3.070000000E+01 9.999981155E-01 2.650899884E-08 4.038573207E-02
3.080000000E+01 9.999981277E-01 2.633714193E-08 4.025460956E-02
3.090000000E+01 9.999981398E-01 2.616695082E-08 4.012433575E-02
3.100000000E+01 9.999981518E-01 2.599840408E-08 3.999490241E-02
3.110000000E+01 9.999981643E-01 2.415090491E-08 3.986630143E-02
3.120000000E+01 9.999981762E-01 2.384854971E-08 3.973852483E-02
3.130000000E+01 9.999981879E-01 2.355049759E-08 3.961156468E-02
3.140000000E+01 9.999981994E-01 2.325667595E-08 3.948541320E-02
3.150000000E+01 9.999982109E-01 2.296701361E-08 3.936006269E-02
3.160000000E+01 9.999982223E-01 2.268144081E-08 3.923550552E-02
3.170000000E+01 9.999982335E-01 2.239988916E-08 3.911173421E-02
3.180000000E+01 9.999982447E-01 2.212229159E-08 3.898874134E-02
3.190000000E+01 9.999982557E-01 2.184858234E-08 3.886651958E-02
3.200000000E+01 9.999982667E-01 2.157869694E-08 3.874506171E-02
3.210000000E+01 9.999982775E-01 2.132966102E-08 3.862436058E-02
3.220000000E+01 9.999982882E-01 2.119738437E-08 3.850440915E-02
3.230000000E+01 9.999982988E-01 2.106633439E-08 3.838520045E-02
3.240000000E+01 9.999983093E-01 2.093649597E-08 3.826672761E-02
3.250000000E+01 9.999983196E-01 2.080785421E-08 3.814898383E-02
3.260000000E+01 9.999983299E-01 2.068039445E-08 3.803196241E-02
3.270000000E+01 9.999983401E-01 2.055410226E-08 3.791565672E-02
