# 11/03/2022 
# Density retrieved from www.chemicool.com/densities.html 
# Includes the real (n) and complex (k) part of the  refractive index. 
# Elements, NiV  
# Nominal density, g cm-3 =  [8.37] 
#    E [keV]      n       k    Wavelength [nm] 
2.000000000E+00 9.995986917E-01 6.590711752E-05 6.199209873E-01
2.100000000E+00 9.996354624E-01 5.380604118E-05 5.904009403E-01
2.200000000E+00 9.996679387E-01 4.481020343E-05 5.635645339E-01
2.300000000E+00 9.996963752E-01 3.817469368E-05 5.390617281E-01
2.400000000E+00 9.997213038E-01 3.321253209E-05 5.166008227E-01
2.500000000E+00 9.997434737E-01 2.825802513E-05 4.959367898E-01
2.600000000E+00 9.997629216E-01 2.543165195E-05 4.768622979E-01
2.700000000E+00 9.997805774E-01 2.140516869E-05 4.592007313E-01
2.800000000E+00 9.997960101E-01 1.969816354E-05 4.428007052E-01
2.900000000E+00 9.998102659E-01 1.655472443E-05 4.275317154E-01
3.000000000E+00 9.998227142E-01 1.542649008E-05 4.132806582E-01
3.100000000E+00 9.998343105E-01 1.294328988E-05 3.999490241E-01
3.200000000E+00 9.998445121E-01 1.211285721E-05 3.874506171E-01
3.300000000E+00 9.998542083E-01 1.022629939E-05 3.757096893E-01
3.400000000E+00 9.998626948E-01 9.530924895E-06 3.646594043E-01
3.500000000E+00 9.998708138E-01 8.181979831E-06 3.542405642E-01
3.600000000E+00 9.998779826E-01 7.540811380E-06 3.444005485E-01
3.700000000E+00 9.998848102E-01 6.619181262E-06 3.350924256E-01
3.800000000E+00 9.998909675E-01 5.993360128E-06 3.262742038E-01
3.900000000E+00 9.998964872E-01 5.689948735E-06 3.179081986E-01
4.000000000E+00 9.999019985E-01 4.916679298E-06 3.099604936E-01
4.100000000E+00 9.999068143E-01 4.564672554E-06 3.024004816E-01
4.200000000E+00 9.999114841E-01 4.088439311E-06 2.952004701E-01
4.300000000E+00 9.999157295E-01 3.738935080E-06 2.883353429E-01
4.400000000E+00 9.999195737E-01 3.518427339E-06 2.817822670E-01
4.500000000E+00 9.999234422E-01 3.145094151E-06 2.755204388E-01
4.600000000E+00 9.999269171E-01 2.890217386E-06 2.695308640E-01
4.700000000E+00 9.999300503E-01 2.731599315E-06 2.637961648E-01
4.800000000E+00 9.999333385E-01 2.458976515E-06 2.583004114E-01
4.900000000E+00 9.999362514E-01 2.272607439E-06 2.530289744E-01
5.000000000E+00 9.999388851E-01 2.139343291E-06 2.479683949E-01
5.100000000E+00 9.999412583E-01 2.056269984E-06 2.431062695E-01
5.200000000E+00 9.999445064E-01 1.814376933E-06 2.384311490E-01
5.300000000E+00 9.999469357E-01 1.689098793E-06 2.339324480E-01
5.400000000E+00 9.999502387E-01 1.610256440E-06 2.296003657E-01
5.500000000E+00 9.999527808E-01 5.148388992E-06 2.254258136E-01
5.600000000E+00 9.999528253E-01 4.823792945E-06 2.214003526E-01
5.700000000E+00 9.999537955E-01 4.529899955E-06 2.175161359E-01
5.800000000E+00 9.999553751E-01 4.375043090E-06 2.137658577E-01
5.900000000E+00 9.999562131E-01 3.939511686E-06 2.101427076E-01
6.000000000E+00 9.999574075E-01 3.698987324E-06 2.066403291E-01
6.100000000E+00 9.999586709E-01 3.525676630E-06 2.032527827E-01
6.200000000E+00 9.999599933E-01 3.412862315E-06 1.999745120E-01
6.300000000E+00 9.999610477E-01 3.098635828E-06 1.968003134E-01
6.400000000E+00 9.999621798E-01 2.926505188E-06 1.937253085E-01
6.500000000E+00 9.999632862E-01 2.788588584E-06 1.907449192E-01
6.600000000E+00 9.999643903E-01 2.704726072E-06 1.878548446E-01
6.700000000E+00 9.999653926E-01 2.483912810E-06 1.850510410E-01
6.800000000E+00 9.999663819E-01 2.355497053E-06 1.823297021E-01
6.900000000E+00 9.999673295E-01 2.235001873E-06 1.796872427E-01
7.000000000E+00 9.999682535E-01 2.164094803E-06 1.771202821E-01
7.100000000E+00 9.999691415E-01 2.103563685E-06 1.746256302E-01
7.200000000E+00 9.999700266E-01 1.917283124E-06 1.722002742E-01
7.300000000E+00 9.999708532E-01 1.823661250E-06 1.698413664E-01
7.400000000E+00 9.999716453E-01 1.738085833E-06 1.675462128E-01
7.500000000E+00 9.999723964E-01 1.692045870E-06 1.653122633E-01
7.600000000E+00 9.999731180E-01 1.647811292E-06 1.631371019E-01
7.700000000E+00 9.999739850E-01 1.501129484E-06 1.610184383E-01
7.800000000E+00 9.999747000E-01 1.431524430E-06 1.589540993E-01
7.900000000E+00 9.999753860E-01 1.365714306E-06 1.569420221E-01
8.000000000E+00 9.999759985E-01 1.331177965E-06 1.549802468E-01
8.100000000E+00 9.999769214E-01 1.288290810E-06 1.530669104E-01
8.200000000E+00 9.999775543E-01 1.193188818E-06 1.512002408E-01
8.300000000E+00 9.999787404E-01 1.139976130E-06 1.493785512E-01
8.400000000E+00 9.999792169E-01 2.622478005E-06 1.476002351E-01
8.500000000E+00 9.999789987E-01 2.504698217E-06 1.458637617E-01
8.600000000E+00 9.999794843E-01 2.446788077E-06 1.441676715E-01
8.700000000E+00 9.999799532E-01 2.390863339E-06 1.425105718E-01
8.800000000E+00 9.999799864E-01 2.197160854E-06 1.408911335E-01
8.900000000E+00 9.999803050E-01 2.107373667E-06 1.393080870E-01
9.000000000E+00 9.999806173E-01 2.021896587E-06 1.377602194E-01
9.100000000E+00 9.999810052E-01 1.966388370E-06 1.362463708E-01
9.200000000E+00 9.999814159E-01 1.923873121E-06 1.347654320E-01
9.300000000E+00 9.999818134E-01 1.882721944E-06 1.333163414E-01
9.400000000E+00 9.999820227E-01 1.729524367E-06 1.318980824E-01
9.500000000E+00 9.999823550E-01 1.664781162E-06 1.305096815E-01
9.600000000E+00 9.999826783E-01 1.602928139E-06 1.291502057E-01
9.700000000E+00 9.999830107E-01 1.555264957E-06 1.278187603E-01
9.800000000E+00 9.999833556E-01 1.523686795E-06 1.265144872E-01
9.900000000E+00 9.999836902E-01 1.493060706E-06 1.252365631E-01
1.000000000E+01 9.999839331E-01 1.380564076E-06 1.239841975E-01
1.010000000E+01 9.999842274E-01 1.330801319E-06 1.227566311E-01
1.020000000E+01 9.999845138E-01 1.283148812E-06 1.215531348E-01
1.030000000E+01 9.999847925E-01 1.237499978E-06 1.203730072E-01
1.040000000E+01 9.999850789E-01 1.209084279E-06 1.192155745E-01
1.050000000E+01 9.999853617E-01 1.186163770E-06 1.180801881E-01
1.060000000E+01 9.999856366E-01 1.163888889E-06 1.169662240E-01
1.070000000E+01 9.999858513E-01 1.073448717E-06 1.158730817E-01
1.080000000E+01 9.999860991E-01 1.036524045E-06 1.148001828E-01
1.090000000E+01 9.999863403E-01 1.001076207E-06 1.137469701E-01
1.100000000E+01 9.999865754E-01 9.670350563E-07 1.127129068E-01
1.110000000E+01 9.999868126E-01 9.449577744E-07 1.116974752E-01
1.120000000E+01 9.999870470E-01 9.281588599E-07 1.107001763E-01
1.130000000E+01 9.999872753E-01 9.118039579E-07 1.097205287E-01
1.140000000E+01 9.999874975E-01 8.958775576E-07 1.087580679E-01
1.150000000E+01 9.999876844E-01 8.190603458E-07 1.078123456E-01
1.160000000E+01 9.999878900E-01 7.927929703E-07 1.068829288E-01
1.170000000E+01 9.999880904E-01 7.675052270E-07 1.059693995E-01
1.180000000E+01 9.999882861E-01 7.435172877E-07 1.050713538E-01
1.190000000E+01 9.999884821E-01 7.310737034E-07 1.041884012E-01
1.200000000E+01 9.999886733E-01 7.189399107E-07 1.033201645E-01
1.210000000E+01 9.999888597E-01 7.071057109E-07 1.024662789E-01
1.220000000E+01 9.999890279E-01 6.559188688E-07 1.016263914E-01
1.230000000E+01 9.999892023E-01 6.360202415E-07 1.008001605E-01
1.240000000E+01 9.999893727E-01 6.168228195E-07 9.998725601E-02
1.250000000E+01 9.999895390E-01 5.982972437E-07 9.918735797E-02
1.260000000E+01 9.999897015E-01 5.804155903E-07 9.840015671E-02
1.270000000E+01 9.999898628E-01 5.706776303E-07 9.762535233E-02
1.280000000E+01 9.999900206E-01 5.617956237E-07 9.686265426E-02
1.290000000E+01 9.999901747E-01 5.531193738E-07 9.611178098E-02
1.300000000E+01 9.999903253E-01 5.446425739E-07 9.537245958E-02
1.310000000E+01 9.999904640E-01 5.017221568E-07 9.464442554E-02
1.320000000E+01 9.999906063E-01 4.875303786E-07 9.392742232E-02
1.330000000E+01 9.999907455E-01 4.738051278E-07 9.322120110E-02
1.340000000E+01 9.999908816E-01 4.605281729E-07 9.252552049E-02
1.350000000E+01 9.999910151E-01 4.490928847E-07 9.184014627E-02
1.360000000E+01 9.999911467E-01 4.425128582E-07 9.116485107E-02
1.370000000E+01 9.999912755E-01 4.360763932E-07 9.049941420E-02
1.380000000E+01 9.999914015E-01 4.297793439E-07 8.984362135E-02
1.390000000E+01 9.999915247E-01 4.236177126E-07 8.919726436E-02
1.400000000E+01 9.999916412E-01 3.908158722E-07 8.856014104E-02
1.410000000E+01 9.999917586E-01 3.804728583E-07 8.793205493E-02
1.420000000E+01 9.999918735E-01 3.704483305E-07 8.731281511E-02
1.430000000E+01 9.999919861E-01 3.607306229E-07 8.670223598E-02
1.440000000E+01 9.999920963E-01 3.513085689E-07 8.610013712E-02
1.450000000E+01 9.999922049E-01 3.461884349E-07 8.550634307E-02
1.460000000E+01 9.999923113E-01 3.414623683E-07 8.492068319E-02
1.470000000E+01 9.999924155E-01 3.368324237E-07 8.434299147E-02
1.480000000E+01 9.999925177E-01 3.322960118E-07 8.377310639E-02
1.490000000E+01 9.999926162E-01 3.092650796E-07 8.321087078E-02
1.500000000E+01 9.999927140E-01 3.015846828E-07 8.265613164E-02
1.510000000E+01 9.999928099E-01 2.941266077E-07 8.210874004E-02
1.520000000E+01 9.999929039E-01 2.868831929E-07 8.156855096E-02
1.530000000E+01 9.999929961E-01 2.798470856E-07 8.103542318E-02
1.540000000E+01 9.999930865E-01 2.730112279E-07 8.050921913E-02
1.550000000E+01 9.999931754E-01 2.694442932E-07 7.998980481E-02
1.560000000E+01 9.999932626E-01 2.660009510E-07 7.947704965E-02
1.570000000E+01 9.999933482E-01 2.626231954E-07 7.897082641E-02
1.580000000E+01 9.999934321E-01 2.593093712E-07 7.847101105E-02
1.590000000E+01 9.999935145E-01 2.560578752E-07 7.797748268E-02
1.600000000E+01 9.999935949E-01 2.366552805E-07 7.749012341E-02
1.610000000E+01 9.999936742E-01 2.311642794E-07 7.700881830E-02
1.620000000E+01 9.999937519E-01 2.258216248E-07 7.653345522E-02
1.630000000E+01 9.999938283E-01 2.206225455E-07 7.606392482E-02
1.640000000E+01 9.999939033E-01 2.155624494E-07 7.560012040E-02
1.650000000E+01 9.999939769E-01 2.114881066E-07 7.514193785E-02
1.660000000E+01 9.999940493E-01 2.089477319E-07 7.468927558E-02
1.670000000E+01 9.999941203E-01 2.064528560E-07 7.424203441E-02
1.680000000E+01 9.999941901E-01 2.040023987E-07 7.380011753E-02
1.690000000E+01 9.999942587E-01 2.015953118E-07 7.336343045E-02
1.700000000E+01 9.999943260E-01 1.992305779E-07 7.293188086E-02
1.710000000E+01 9.999943903E-01 1.839142565E-07 7.250537863E-02
1.720000000E+01 9.999944550E-01 1.798516980E-07 7.208383573E-02
1.730000000E+01 9.999945187E-01 1.758925676E-07 7.166716616E-02
1.740000000E+01 9.999945812E-01 1.720337382E-07 7.125528590E-02
1.750000000E+01 9.999946427E-01 1.682721933E-07 7.084811283E-02
1.760000000E+01 9.999947032E-01 1.646244099E-07 7.044556674E-02
1.770000000E+01 9.999947628E-01 1.627695018E-07 7.004756919E-02
1.780000000E+01 9.999948215E-01 1.609457682E-07 6.965404352E-02
1.790000000E+01 9.999948792E-01 1.591525146E-07 6.926491478E-02
1.800000000E+01 9.999949360E-01 1.573890655E-07 6.888010970E-02
1.810000000E+01 9.999949918E-01 1.556547639E-07 6.849955661E-02
1.820000000E+01 9.999950477E-01 1.448927761E-07 6.812318542E-02
1.830000000E+01 9.999951018E-01 1.418805016E-07 6.775092757E-02
1.840000000E+01 9.999951551E-01 1.389403821E-07 6.738271601E-02
1.850000000E+01 9.999952074E-01 1.360703646E-07 6.701848511E-02
1.860000000E+01 9.999952590E-01 1.332684645E-07 6.665817068E-02
1.870000000E+01 9.999953097E-01 1.305327629E-07 6.630170987E-02
1.880000000E+01 9.999953596E-01 1.278614041E-07 6.594904120E-02
1.890000000E+01 9.999954086E-01 1.263349564E-07 6.560010448E-02
1.900000000E+01 9.999954568E-01 1.250086144E-07 6.525484077E-02
1.910000000E+01 9.999955043E-01 1.237030503E-07 6.491319239E-02
1.920000000E+01 9.999955510E-01 1.224178326E-07 6.457510284E-02
1.930000000E+01 9.999955970E-01 1.211525405E-07 6.424051682E-02
1.940000000E+01 9.999956422E-01 1.199067642E-07 6.390938013E-02
1.950000000E+01 9.999956881E-01 1.112358094E-07 6.358163972E-02
1.960000000E+01 9.999957321E-01 1.090726059E-07 6.325724360E-02
1.970000000E+01 9.999957755E-01 1.069578429E-07 6.293614084E-02
1.980000000E+01 9.999958183E-01 1.048902316E-07 6.261828154E-02
1.990000000E+01 9.999958604E-01 1.028685238E-07 6.230361681E-02
2.000000000E+01 9.999959018E-01 1.008915096E-07 6.199209873E-02
2.010000000E+01 9.999959427E-01 9.895801652E-08 6.168368033E-02
2.020000000E+01 9.999959827E-01 9.787987680E-08 6.137831557E-02
2.030000000E+01 9.999960222E-01 9.691791825E-08 6.107595934E-02
2.040000000E+01 9.999960611E-01 9.597007144E-08 6.077656738E-02
2.050000000E+01 9.999960995E-01 9.503606170E-08 6.048009632E-02
2.060000000E+01 9.999961372E-01 9.411562101E-08 6.018650362E-02
2.070000000E+01 9.999961745E-01 9.320848778E-08 5.989574756E-02
2.080000000E+01 9.999962124E-01 8.687119261E-08 5.960778724E-02
2.090000000E+01 9.999962487E-01 8.528896431E-08 5.932258252E-02
2.100000000E+01 9.999962845E-01 8.373996468E-08 5.904009403E-02
2.110000000E+01 9.999963198E-01 8.222336428E-08 5.876028316E-02
2.120000000E+01 9.999963546E-01 8.073835787E-08 5.848311201E-02
2.130000000E+01 9.999963889E-01 7.928416364E-08 5.820854341E-02
2.140000000E+01 9.999964228E-01 7.786002243E-08 5.793654087E-02
2.150000000E+01 9.999964561E-01 7.647250967E-08 5.766706859E-02
2.160000000E+01 9.999964888E-01 7.576606994E-08 5.740009142E-02
2.170000000E+01 9.999965211E-01 7.506937415E-08 5.713557487E-02
2.180000000E+01 9.999965530E-01 7.438224390E-08 5.687348507E-02
2.190000000E+01 9.999965844E-01 7.370450490E-08 5.661378879E-02
2.200000000E+01 9.999966154E-01 7.303598676E-08 5.635645339E-02
2.210000000E+01 9.999966459E-01 7.237652299E-08 5.610144681E-02
2.220000000E+01 9.999966761E-01 7.172595080E-08 5.584873759E-02
2.230000000E+01 9.999967071E-01 6.651945470E-08 5.559829482E-02
2.240000000E+01 9.999967365E-01 6.538484674E-08 5.535008815E-02
2.250000000E+01 9.999967656E-01 6.427251197E-08 5.510408776E-02
2.260000000E+01 9.999967943E-01 6.318193084E-08 5.486026436E-02
2.270000000E+01 9.999968226E-01 6.211259796E-08 5.461858919E-02
2.280000000E+01 9.999968506E-01 6.106402170E-08 5.437903397E-02
2.290000000E+01 9.999968782E-01 6.003572372E-08 5.414157094E-02
2.300000000E+01 9.999969054E-01 5.911801600E-08 5.390617281E-02
2.310000000E+01 9.999969321E-01 5.860727959E-08 5.367281275E-02
2.320000000E+01 9.999969585E-01 5.810313329E-08 5.344146442E-02
2.330000000E+01 9.999969845E-01 5.760546421E-08 5.321210191E-02
2.340000000E+01 9.999970103E-01 5.711416185E-08 5.298469977E-02
2.350000000E+01 9.999970357E-01 5.662911808E-08 5.275923296E-02
2.360000000E+01 9.999970607E-01 5.615022706E-08 5.253567689E-02
2.370000000E+01 9.999970855E-01 5.567738515E-08 5.231400737E-02
2.380000000E+01 9.999971110E-01 5.180132444E-08 5.209420061E-02
2.390000000E+01 9.999971352E-01 5.097167770E-08 5.187623325E-02
2.400000000E+01 9.999971592E-01 5.015731234E-08 5.166008227E-02
2.410000000E+01 9.999971828E-01 4.935789390E-08 5.144572509E-02
2.420000000E+01 9.999972062E-01 4.857309648E-08 5.123313945E-02
2.430000000E+01 9.999972292E-01 4.780260249E-08 5.102230348E-02
2.440000000E+01 9.999972520E-01 4.704610244E-08 5.081319568E-02
2.450000000E+01 9.999972745E-01 4.630329463E-08 5.060579488E-02
2.460000000E+01 9.999972967E-01 4.567691667E-08 5.040008027E-02
2.470000000E+01 9.999973185E-01 4.530781179E-08 5.019603136E-02
2.480000000E+01 9.999973401E-01 4.494316287E-08 4.999362801E-02
2.490000000E+01 9.999973614E-01 4.458289849E-08 4.979285038E-02
2.500000000E+01 9.999973825E-01 4.422694863E-08 4.959367898E-02
2.510000000E+01 9.999974033E-01 4.387524467E-08 4.939609460E-02
2.520000000E+01 9.999974239E-01 4.352771934E-08 4.920007836E-02
2.530000000E+01 9.999974442E-01 4.318430673E-08 4.900561164E-02
2.540000000E+01 9.999974652E-01 4.030806114E-08 4.881267616E-02
2.550000000E+01 9.999974851E-01 3.970005637E-08 4.862125391E-02
2.560000000E+01 9.999975048E-01 3.910257022E-08 4.843132713E-02
2.570000000E+01 9.999975243E-01 3.851538657E-08 4.824287839E-02
2.580000000E+01 9.999975436E-01 3.793829449E-08 4.805589049E-02
2.590000000E+01 9.999975626E-01 3.737108813E-08 4.787034651E-02
2.600000000E+01 9.999975814E-01 3.681356650E-08 4.768622979E-02
2.610000000E+01 9.999976000E-01 3.626553345E-08 4.750352393E-02
2.620000000E+01 9.999976184E-01 3.572679742E-08 4.732221277E-02
2.630000000E+01 9.999976365E-01 3.529444423E-08 4.714228040E-02
2.640000000E+01 9.999976544E-01 3.502756848E-08 4.696371116E-02
2.650000000E+01 9.999976721E-01 3.476370826E-08 4.678648961E-02
2.660000000E+01 9.999976895E-01 3.450281831E-08 4.661060055E-02
2.670000000E+01 9.999977068E-01 3.424485422E-08 4.643602901E-02
2.680000000E+01 9.999977239E-01 3.398977240E-08 4.626276025E-02
2.690000000E+01 9.999977408E-01 3.373753006E-08 4.609077972E-02
2.700000000E+01 9.999977575E-01 3.348808522E-08 4.592007313E-02
2.710000000E+01 9.999977740E-01 3.324139667E-08 4.575062637E-02
2.720000000E+01 9.999977912E-01 3.086638524E-08 4.558242554E-02
2.730000000E+01 9.999978074E-01 3.042365303E-08 4.541545694E-02
2.740000000E+01 9.999978235E-01 2.998812253E-08 4.524970710E-02
2.750000000E+01 9.999978393E-01 2.955965500E-08 4.508516271E-02
2.760000000E+01 9.999978550E-01 2.913811482E-08 4.492181067E-02
2.770000000E+01 9.999978706E-01 2.872336942E-08 4.475963807E-02
2.780000000E+01 9.999978860E-01 2.831528917E-08 4.459863218E-02
2.790000000E+01 9.999979012E-01 2.791374735E-08 4.443878045E-02
2.800000000E+01 9.999979162E-01 2.751862006E-08 4.428007052E-02
2.810000000E+01 9.999979311E-01 2.717580336E-08 4.412249020E-02
2.820000000E+01 9.999979457E-01 2.698340889E-08 4.396602747E-02
2.830000000E+01 9.999979602E-01 2.679305034E-08 4.381067048E-02
2.840000000E+01 9.999979745E-01 2.660469908E-08 4.365640756E-02
2.850000000E+01 9.999979887E-01 2.641832698E-08 4.350322718E-02
2.860000000E+01 9.999980028E-01 2.623390641E-08 4.335111799E-02
2.870000000E+01 9.999980167E-01 2.605141022E-08 4.320006880E-02
2.880000000E+01 9.999980304E-01 2.587081174E-08 4.305006856E-02
2.890000000E+01 9.999980440E-01 2.569208473E-08 4.290110639E-02
2.900000000E+01 9.999980575E-01 2.551520343E-08 4.275317154E-02
2.910000000E+01 9.999980716E-01 2.364984709E-08 4.260625342E-02
2.920000000E+01 9.999980848E-01 2.333048949E-08 4.246034160E-02
2.930000000E+01 9.999980980E-01 2.301600209E-08 4.231542575E-02
2.940000000E+01 9.999981109E-01 2.270629701E-08 4.217149573E-02
2.950000000E+01 9.999981238E-01 2.240128821E-08 4.202854151E-02
2.960000000E+01 9.999981365E-01 2.210089146E-08 4.188655320E-02
2.970000000E+01 9.999981491E-01 2.180502432E-08 4.174552103E-02
2.980000000E+01 9.999981616E-01 2.151360604E-08 4.160543539E-02
2.990000000E+01 9.999981739E-01 2.122655757E-08 4.146628678E-02
3.000000000E+01 9.999981861E-01 2.094380149E-08 4.132806582E-02
3.010000000E+01 9.999981982E-01 2.078650186E-08 4.119076328E-02
3.020000000E+01 9.999982101E-01 2.064907082E-08 4.105437002E-02
3.030000000E+01 9.999982219E-01 2.051299824E-08 4.091887705E-02
3.040000000E+01 9.999982336E-01 2.037826627E-08 4.078427548E-02
3.050000000E+01 9.999982451E-01 2.024485735E-08 4.065055654E-02
3.060000000E+01 9.999982566E-01 2.011275423E-08 4.051771159E-02
3.070000000E+01 9.999982679E-01 1.998193992E-08 4.038573207E-02
3.080000000E+01 9.999982791E-01 1.985239770E-08 4.025460956E-02
3.090000000E+01 9.999982903E-01 1.972411113E-08 4.012433575E-02
3.100000000E+01 9.999983013E-01 1.959706405E-08 3.999490241E-02
3.110000000E+01 9.999983128E-01 1.818297762E-08 3.986630143E-02
3.120000000E+01 9.999983237E-01 1.795331703E-08 3.973852483E-02
3.130000000E+01 9.999983345E-01 1.772693479E-08 3.961156468E-02
3.140000000E+01 9.999983451E-01 1.750377551E-08 3.948541320E-02
3.150000000E+01 9.999983556E-01 1.728378488E-08 3.936006269E-02
3.160000000E+01 9.999983661E-01 1.706690967E-08 3.923550552E-02
3.170000000E+01 9.999983764E-01 1.685309770E-08 3.911173421E-02
3.180000000E+01 9.999983867E-01 1.664229779E-08 3.898874134E-02
3.190000000E+01 9.999983968E-01 1.643445978E-08 3.886651958E-02
3.200000000E+01 9.999984069E-01 1.622953448E-08 3.874506171E-02
3.210000000E+01 9.999984168E-01 1.604057330E-08 3.862436058E-02
3.220000000E+01 9.999984267E-01 1.594109711E-08 3.850440915E-02
3.230000000E+01 9.999984364E-01 1.584254343E-08 3.838520045E-02
3.240000000E+01 9.999984460E-01 1.574490087E-08 3.826672761E-02
3.250000000E+01 9.999984556E-01 1.564815823E-08 3.814898383E-02
3.260000000E+01 9.999984650E-01 1.555230450E-08 3.803196241E-02
3.270000000E+01 9.999984744E-01 1.545732882E-08 3.791565672E-02
