# 08/03/2022 
# Density retrieved from www.chemicool.com/densities.html 
# Includes the real (n) and complex (k) part of the  refractive index. 
# Element, Os  (Z = 76) 
# Nominal density, g cm-3 =  22.61 
#    E [keV]      n       k    Wavelength [nm] 
2.000000000E+00 9.996134770E-01 3.060936643E-04 6.199209873E-01
2.100000000E+00 9.995235931E-01 3.831220337E-04 5.904009403E-01
2.200000000E+00 9.994979009E-01 3.267279261E-04 5.635645339E-01
2.300000000E+00 9.995086614E-01 2.803674486E-04 5.390617281E-01
2.400000000E+00 9.995371812E-01 2.431987675E-04 5.166008227E-01
2.500000000E+00 9.995599314E-01 2.467710322E-04 4.959367898E-01
2.600000000E+00 9.995691947E-01 2.154740005E-04 4.768622979E-01
2.700000000E+00 9.995892492E-01 1.896994879E-04 4.592007313E-01
2.800000000E+00 9.996200161E-01 1.794068886E-04 4.428007052E-01
2.900000000E+00 9.996276609E-01 1.592661204E-04 4.275317154E-01
3.000000000E+00 9.996454706E-01 1.420089554E-04 4.132806582E-01
3.100000000E+00 9.996619303E-01 1.322395769E-04 3.999490241E-01
3.200000000E+00 9.996766426E-01 1.187878559E-04 3.874506171E-01
3.300000000E+00 9.996918162E-01 1.069707110E-04 3.757096893E-01
3.400000000E+00 9.997064871E-01 9.649290403E-05 3.646594043E-01
3.500000000E+00 9.997204770E-01 8.718599406E-05 3.542405642E-01
3.600000000E+00 9.997337922E-01 7.900704015E-05 3.444005485E-01
3.700000000E+00 9.997465176E-01 7.205232359E-05 3.350924256E-01
3.800000000E+00 9.997583407E-01 6.559798201E-05 3.262742038E-01
3.900000000E+00 9.997695148E-01 5.999484110E-05 3.179081986E-01
4.000000000E+00 9.997793925E-01 5.492721756E-05 3.099604936E-01
4.100000000E+00 9.997889094E-01 5.032924683E-05 3.024004816E-01
4.200000000E+00 9.997982921E-01 4.618330208E-05 2.952004701E-01
4.300000000E+00 9.998071763E-01 4.261985521E-05 2.883353429E-01
4.400000000E+00 9.998154792E-01 3.916992748E-05 2.817822670E-01
4.500000000E+00 9.998233260E-01 3.616658093E-05 2.755204388E-01
4.600000000E+00 9.998307184E-01 3.346950731E-05 2.695308640E-01
4.700000000E+00 9.998376936E-01 3.110285627E-05 2.637961648E-01
4.800000000E+00 9.998442626E-01 2.893999356E-05 2.583004114E-01
4.900000000E+00 9.998504393E-01 2.683650122E-05 2.530289744E-01
5.000000000E+00 9.998560750E-01 2.497545109E-05 2.479683949E-01
5.100000000E+00 9.998616068E-01 2.328407269E-05 2.431062695E-01
5.200000000E+00 9.998668427E-01 2.173439394E-05 2.384311490E-01
5.300000000E+00 9.998718025E-01 2.037426841E-05 2.339324480E-01
5.400000000E+00 9.998764997E-01 1.903426517E-05 2.296003657E-01
5.500000000E+00 9.998809544E-01 1.782344156E-05 2.254258136E-01
5.600000000E+00 9.998851077E-01 1.677670649E-05 2.214003526E-01
5.700000000E+00 9.998891235E-01 1.570795180E-05 2.175161359E-01
5.800000000E+00 9.998929374E-01 1.480924333E-05 2.137658577E-01
5.900000000E+00 9.998965730E-01 1.389058288E-05 2.101427076E-01
6.000000000E+00 9.999000273E-01 1.310988991E-05 2.066403291E-01
6.100000000E+00 9.999033096E-01 1.234278822E-05 2.032527827E-01
6.200000000E+00 9.999064375E-01 1.164954709E-05 1.999745120E-01
6.300000000E+00 9.999094306E-01 1.101068789E-05 1.968003134E-01
6.400000000E+00 9.999122854E-01 1.042683226E-05 1.937253085E-01
6.500000000E+00 9.999150124E-01 9.879633840E-06 1.907449192E-01
6.600000000E+00 9.999176189E-01 9.366338778E-06 1.878548446E-01
6.700000000E+00 9.999201120E-01 8.884445110E-06 1.850510410E-01
6.800000000E+00 9.999224982E-01 8.431655067E-06 1.823297021E-01
6.900000000E+00 9.999247834E-01 8.006167204E-06 1.796872427E-01
7.000000000E+00 9.999269734E-01 7.605809593E-06 1.771202821E-01
7.100000000E+00 9.999290730E-01 7.230524583E-06 1.746256302E-01
7.200000000E+00 9.999310842E-01 6.885613673E-06 1.722002742E-01
7.300000000E+00 9.999330147E-01 6.560495077E-06 1.698413664E-01
7.400000000E+00 9.999348615E-01 6.270599872E-06 1.675462128E-01
7.500000000E+00 9.999366475E-01 5.971371361E-06 1.653122633E-01
7.600000000E+00 9.999383573E-01 5.705307715E-06 1.631371019E-01
7.700000000E+00 9.999399984E-01 5.460112613E-06 1.610184383E-01
7.800000000E+00 9.999415865E-01 5.212768775E-06 1.589540993E-01
7.900000000E+00 9.999431029E-01 5.000915306E-06 1.569420221E-01
8.000000000E+00 9.999445794E-01 4.774829502E-06 1.549802468E-01
8.100000000E+00 9.999459857E-01 4.587225185E-06 1.530669104E-01
8.200000000E+00 9.999473590E-01 4.384420730E-06 1.512002408E-01
8.300000000E+00 9.999486685E-01 4.213712072E-06 1.493785512E-01
8.400000000E+00 9.999499463E-01 4.034453202E-06 1.476002351E-01
8.500000000E+00 9.999511709E-01 3.875871603E-06 1.458637617E-01
8.600000000E+00 9.999523235E-01 3.758498943E-06 1.441676715E-01
8.700000000E+00 9.999534132E-01 3.672593233E-06 1.425105718E-01
8.800000000E+00 9.999545996E-01 3.427576979E-06 1.408911335E-01
8.900000000E+00 9.999556621E-01 3.292789756E-06 1.393080870E-01
9.000000000E+00 9.999566878E-01 3.164378139E-06 1.377602194E-01
9.100000000E+00 9.999576479E-01 3.079030467E-06 1.362463708E-01
9.200000000E+00 9.999585636E-01 3.012458802E-06 1.347654320E-01
9.300000000E+00 9.999594499E-01 2.948023043E-06 1.333163414E-01
9.400000000E+00 9.999605989E-01 2.695509285E-06 1.318980824E-01
9.500000000E+00 9.999614973E-01 2.591218184E-06 1.305096815E-01
9.600000000E+00 9.999623654E-01 2.491641006E-06 1.291502057E-01
9.700000000E+00 9.999631753E-01 2.415735848E-06 1.278187603E-01
9.800000000E+00 9.999639230E-01 2.366686650E-06 1.265144872E-01
9.900000000E+00 9.999646482E-01 2.319116273E-06 1.252365631E-01
1.000000000E+01 9.999657804E-01 2.143935394E-06 1.239841975E-01
1.010000000E+01 9.999665716E-01 2.066528486E-06 1.227566311E-01
1.020000000E+01 9.999673361E-01 1.992406141E-06 1.215531348E-01
1.030000000E+01 9.999680753E-01 1.921402425E-06 1.203730072E-01
1.040000000E+01 9.999687108E-01 1.877254546E-06 1.192155745E-01
1.050000000E+01 9.999697608E-01 1.789444724E-06 1.180801881E-01
1.060000000E+01 9.999705759E-01 1.727579858E-06 1.169662240E-01
1.070000000E+01 9.999712466E-01 1.681341813E-06 1.158730817E-01
1.080000000E+01 9.999728181E-01 1.612215871E-06 1.148001828E-01
1.090000000E+01 9.999739236E-01 3.255880504E-06 1.137469701E-01
1.100000000E+01 9.999732848E-01 4.051924929E-06 1.127129068E-01
1.110000000E+01 9.999732702E-01 3.925516532E-06 1.116974752E-01
1.120000000E+01 9.999737454E-01 3.855730962E-06 1.107001763E-01
1.130000000E+01 9.999742080E-01 3.787789897E-06 1.097205287E-01
1.140000000E+01 9.999746585E-01 3.721628901E-06 1.087580679E-01
1.150000000E+01 9.999745835E-01 3.436251237E-06 1.078123456E-01
1.160000000E+01 9.999749021E-01 3.326650772E-06 1.068829288E-01
1.170000000E+01 9.999752155E-01 3.221129678E-06 1.059693995E-01
1.180000000E+01 9.999755274E-01 3.121014841E-06 1.050713538E-01
1.190000000E+01 9.999759370E-01 3.068781205E-06 1.041884012E-01
1.200000000E+01 9.999763944E-01 2.926997294E-06 1.033201645E-01
1.210000000E+01 9.999768103E-01 2.835948448E-06 1.024662789E-01
1.220000000E+01 9.999771973E-01 2.776497963E-06 1.016263914E-01
1.230000000E+01 9.999779035E-01 2.668287680E-06 1.008001605E-01
1.240000000E+01 9.999788157E-01 2.598037322E-06 9.998725601E-02
1.250000000E+01 9.999786241E-01 3.537089043E-06 9.918735797E-02
1.260000000E+01 9.999785534E-01 3.408907279E-06 9.840015671E-02
1.270000000E+01 9.999787682E-01 3.309488952E-06 9.762535233E-02
1.280000000E+01 9.999790904E-01 3.254243100E-06 9.686265426E-02
1.290000000E+01 9.999794118E-01 3.122464696E-06 9.611178098E-02
1.300000000E+01 9.999797526E-01 3.310183873E-06 9.537245958E-02
1.310000000E+01 9.999799332E-01 3.447989421E-06 9.464442554E-02
1.320000000E+01 9.999799455E-01 3.329520981E-06 9.392742232E-02
1.330000000E+01 9.999801990E-01 3.268900013E-06 9.322120110E-02
1.340000000E+01 9.999803337E-01 3.155992870E-06 9.252552049E-02
1.350000000E+01 9.999805553E-01 3.081770410E-06 9.184014627E-02
1.360000000E+01 9.999808402E-01 3.036616875E-06 9.116485107E-02
1.370000000E+01 9.999811189E-01 2.992448491E-06 9.049941420E-02
1.380000000E+01 9.999813915E-01 2.949236805E-06 8.984362135E-02
1.390000000E+01 9.999816583E-01 2.906954387E-06 8.919726436E-02
1.400000000E+01 9.999816673E-01 2.699774929E-06 8.856014104E-02
1.410000000E+01 9.999818811E-01 2.631770431E-06 8.793205493E-02
1.420000000E+01 9.999820913E-01 2.565821486E-06 8.731281511E-02
1.430000000E+01 9.999822980E-01 2.501853530E-06 8.670223598E-02
1.440000000E+01 9.999825013E-01 2.439795169E-06 8.610013712E-02
1.450000000E+01 9.999827391E-01 2.404455390E-06 8.550634307E-02
1.460000000E+01 9.999829747E-01 2.371630446E-06 8.492068319E-02
1.470000000E+01 9.999832056E-01 2.339473117E-06 8.434299147E-02
1.480000000E+01 9.999834317E-01 2.307965421E-06 8.377310639E-02
1.490000000E+01 9.999835409E-01 2.158968941E-06 8.321087078E-02
1.500000000E+01 9.999837380E-01 2.107585537E-06 8.265613164E-02
1.510000000E+01 9.999839316E-01 2.057666004E-06 8.210874004E-02
1.520000000E+01 9.999841219E-01 2.009160315E-06 8.156855096E-02
1.530000000E+01 9.999843088E-01 1.962020447E-06 8.103542318E-02
1.540000000E+01 9.999844924E-01 1.916200292E-06 8.050921913E-02
1.550000000E+01 9.999846916E-01 1.891201691E-06 7.998980481E-02
1.560000000E+01 9.999848872E-01 1.867033228E-06 7.947704965E-02
1.570000000E+01 9.999850791E-01 1.843325110E-06 7.897082641E-02
1.580000000E+01 9.999852674E-01 1.820065720E-06 7.847101105E-02
1.590000000E+01 9.999854521E-01 1.797243805E-06 7.797748268E-02
1.600000000E+01 9.999855611E-01 1.670287055E-06 7.749012341E-02
1.610000000E+01 9.999857284E-01 1.633089378E-06 7.700881830E-02
1.620000000E+01 9.999858930E-01 1.596881396E-06 7.653345522E-02
1.630000000E+01 9.999860546E-01 1.561631530E-06 7.606392482E-02
1.640000000E+01 9.999862136E-01 1.527309384E-06 7.560012040E-02
1.650000000E+01 9.999863736E-01 1.499375594E-06 7.514193785E-02
1.660000000E+01 9.999865373E-01 1.481365240E-06 7.468927558E-02
1.670000000E+01 9.999866981E-01 1.463677455E-06 7.424203441E-02
1.680000000E+01 9.999868559E-01 1.446304583E-06 7.380011753E-02
1.690000000E+01 9.999870110E-01 1.429239192E-06 7.336343045E-02
1.700000000E+01 9.999871634E-01 1.412474067E-06 7.293188086E-02
1.710000000E+01 9.999872708E-01 1.313219594E-06 7.250537863E-02
1.720000000E+01 9.999874121E-01 1.285695775E-06 7.208383573E-02
1.730000000E+01 9.999875511E-01 1.258859288E-06 7.166716616E-02
1.740000000E+01 9.999876878E-01 1.232689558E-06 7.125528590E-02
1.750000000E+01 9.999878222E-01 1.207166733E-06 7.084811283E-02
1.760000000E+01 9.999879546E-01 1.182395183E-06 7.044556674E-02
1.770000000E+01 9.999880903E-01 1.169072527E-06 7.004756919E-02
1.780000000E+01 9.999882237E-01 1.155973778E-06 6.965404352E-02
1.790000000E+01 9.999883549E-01 1.143093948E-06 6.926491478E-02
1.800000000E+01 9.999884840E-01 1.130428185E-06 6.888010970E-02
1.810000000E+01 9.999886109E-01 1.117971771E-06 6.849955661E-02
1.820000000E+01 9.999887137E-01 1.047643395E-06 6.812318542E-02
1.830000000E+01 9.999888332E-01 1.027034827E-06 6.775092757E-02
1.840000000E+01 9.999889509E-01 1.006909977E-06 6.738271601E-02
1.850000000E+01 9.999890667E-01 9.872552262E-07 6.701848511E-02
1.860000000E+01 9.999891807E-01 9.680574070E-07 6.665817068E-02
1.870000000E+01 9.999892929E-01 9.493037846E-07 6.630170987E-02
1.880000000E+01 9.999894034E-01 9.309820407E-07 6.594904120E-02
1.890000000E+01 9.999895148E-01 9.200213768E-07 6.560010448E-02
1.900000000E+01 9.999896249E-01 9.103624266E-07 6.525484077E-02
1.910000000E+01 9.999897332E-01 9.008547902E-07 6.491319239E-02
1.920000000E+01 9.999898399E-01 8.914953234E-07 6.457510284E-02
1.930000000E+01 9.999899449E-01 8.822809633E-07 6.424051682E-02
1.940000000E+01 9.999900483E-01 8.732087257E-07 6.390938013E-02
1.950000000E+01 9.999901367E-01 8.160379888E-07 6.358163972E-02
1.960000000E+01 9.999902352E-01 8.010513580E-07 6.325724360E-02
1.970000000E+01 9.999903323E-01 7.863933380E-07 6.293614084E-02
1.980000000E+01 9.999904279E-01 7.720552826E-07 6.261828154E-02
1.990000000E+01 9.999905221E-01 7.580288130E-07 6.230361681E-02
2.000000000E+01 9.999906149E-01 7.443058077E-07 6.199209873E-02
2.010000000E+01 9.999907064E-01 7.308783940E-07 6.168368033E-02
2.020000000E+01 9.999907980E-01 7.230068330E-07 6.137831557E-02
2.030000000E+01 9.999908885E-01 7.159011578E-07 6.107595934E-02
2.040000000E+01 9.999909776E-01 7.088997216E-07 6.077656738E-02
2.050000000E+01 9.999910654E-01 7.020004952E-07 6.048009632E-02
2.060000000E+01 9.999911519E-01 6.952014990E-07 6.018650362E-02
2.070000000E+01 9.999912372E-01 6.885008008E-07 5.989574756E-02
2.080000000E+01 9.999913142E-01 6.462544566E-07 5.960778724E-02
2.090000000E+01 9.999913961E-01 6.351549338E-07 5.932258252E-02
2.100000000E+01 9.999914769E-01 6.242835255E-07 5.904009403E-02
2.110000000E+01 9.999915565E-01 6.136346010E-07 5.876028316E-02
2.120000000E+01 9.999916351E-01 6.032026935E-07 5.848311201E-02
2.130000000E+01 9.999917125E-01 5.929824935E-07 5.820854341E-02
2.140000000E+01 9.999917889E-01 5.829688445E-07 5.793654087E-02
2.150000000E+01 9.999918642E-01 5.732046212E-07 5.766706859E-02
2.160000000E+01 9.999919394E-01 5.679094568E-07 5.740009142E-02
2.170000000E+01 9.999920135E-01 5.626873286E-07 5.713557487E-02
2.180000000E+01 9.999920866E-01 5.575368996E-07 5.687348507E-02
2.190000000E+01 9.999921587E-01 5.524568632E-07 5.661378879E-02
2.200000000E+01 9.999922298E-01 5.474459425E-07 5.635645339E-02
2.210000000E+01 9.999923000E-01 5.425028893E-07 5.610144681E-02
2.220000000E+01 9.999923692E-01 5.376264836E-07 5.584873759E-02
2.230000000E+01 9.999924303E-01 5.022946390E-07 5.559829482E-02
2.240000000E+01 9.999924968E-01 4.941958073E-07 5.535008815E-02
2.250000000E+01 9.999925625E-01 4.862527193E-07 5.510408776E-02
2.260000000E+01 9.999926274E-01 4.784617808E-07 5.486026436E-02
2.270000000E+01 9.999926914E-01 4.708194949E-07 5.461858919E-02
2.280000000E+01 9.999927546E-01 4.633224590E-07 5.437903397E-02
2.290000000E+01 9.999928169E-01 4.559673623E-07 5.414157094E-02
2.300000000E+01 9.999928786E-01 4.493579520E-07 5.390617281E-02
2.310000000E+01 9.999929401E-01 4.454758280E-07 5.367281275E-02
2.320000000E+01 9.999930009E-01 4.416437957E-07 5.344146442E-02
2.330000000E+01 9.999930608E-01 4.378609969E-07 5.321210191E-02
2.340000000E+01 9.999931200E-01 4.341265918E-07 5.298469977E-02
2.350000000E+01 9.999931784E-01 4.304397584E-07 5.275923296E-02
2.360000000E+01 9.999932361E-01 4.267996923E-07 5.253567689E-02
2.370000000E+01 9.999932931E-01 4.232056056E-07 5.231400737E-02
2.380000000E+01 9.999933479E-01 3.967920857E-07 5.209420061E-02
2.390000000E+01 9.999934033E-01 3.908155240E-07 5.187623325E-02
2.400000000E+01 9.999934580E-01 3.849465944E-07 5.166008227E-02
2.410000000E+01 9.999935120E-01 3.791829685E-07 5.144572509E-02
2.420000000E+01 9.999935654E-01 3.735223771E-07 5.123313945E-02
2.430000000E+01 9.999936181E-01 3.679626086E-07 5.102230348E-02
2.440000000E+01 9.999936701E-01 3.625015071E-07 5.081319568E-02
2.450000000E+01 9.999937216E-01 3.571369710E-07 5.060579488E-02
2.460000000E+01 9.999937724E-01 3.525579652E-07 5.040008027E-02
2.470000000E+01 9.999938227E-01 3.497090236E-07 5.019603136E-02
2.480000000E+01 9.999938724E-01 3.468944755E-07 4.999362801E-02
2.490000000E+01 9.999939216E-01 3.441137694E-07 4.979285038E-02
2.500000000E+01 9.999939701E-01 3.413663651E-07 4.959367898E-02
2.510000000E+01 9.999940180E-01 3.386517328E-07 4.939609460E-02
2.520000000E+01 9.999940654E-01 3.359693534E-07 4.920007836E-02
2.530000000E+01 9.999941122E-01 3.333187180E-07 4.900561164E-02
2.540000000E+01 9.999941557E-01 3.134637632E-07 4.881267616E-02
2.550000000E+01 9.999942011E-01 3.090229157E-07 4.862125391E-02
2.560000000E+01 9.999942460E-01 3.046571581E-07 4.843132713E-02
2.570000000E+01 9.999942904E-01 3.003649658E-07 4.824287839E-02
2.580000000E+01 9.999943343E-01 2.961448506E-07 4.805589049E-02
2.590000000E+01 9.999943776E-01 2.919953595E-07 4.787034651E-02
2.600000000E+01 9.999944205E-01 2.879150741E-07 4.768622979E-02
2.610000000E+01 9.999944629E-01 2.839026095E-07 4.750352393E-02
2.620000000E+01 9.999945048E-01 2.799566132E-07 4.732221277E-02
2.630000000E+01 9.999945463E-01 2.767366358E-07 4.714228040E-02
2.640000000E+01 9.999945876E-01 2.746441167E-07 4.696371116E-02
2.650000000E+01 9.999946283E-01 2.725752419E-07 4.678648961E-02
2.660000000E+01 9.999946686E-01 2.705296563E-07 4.661060055E-02
2.670000000E+01 9.999947085E-01 2.685070117E-07 4.643602901E-02
2.680000000E+01 9.999947479E-01 2.665069665E-07 4.626276025E-02
2.690000000E+01 9.999947869E-01 2.645291850E-07 4.609077972E-02
2.700000000E+01 9.999948254E-01 2.625733383E-07 4.592007313E-02
2.710000000E+01 9.999948636E-01 2.606391029E-07 4.575062637E-02
2.720000000E+01 9.999949018E-01 2.434616278E-07 4.558242554E-02
2.730000000E+01 9.999949391E-01 2.401267955E-07 4.541545694E-02
2.740000000E+01 9.999949761E-01 2.368453363E-07 4.524970710E-02
2.750000000E+01 9.999950126E-01 2.336162304E-07 4.508516271E-02
2.760000000E+01 9.999950487E-01 2.304384809E-07 4.492181067E-02
2.770000000E+01 9.999950845E-01 2.273111132E-07 4.475963807E-02
2.780000000E+01 9.999951198E-01 2.242331741E-07 4.459863218E-02
2.790000000E+01 9.999951548E-01 2.212037320E-07 4.443878045E-02
2.800000000E+01 9.999951894E-01 2.182218755E-07 4.428007052E-02
2.810000000E+01 9.999952236E-01 2.156163328E-07 4.412249020E-02
2.820000000E+01 9.999952574E-01 2.140898502E-07 4.396602747E-02
2.830000000E+01 9.999952909E-01 2.125795209E-07 4.381067048E-02
2.840000000E+01 9.999953240E-01 2.110851177E-07 4.365640756E-02
2.850000000E+01 9.999953567E-01 2.096064174E-07 4.350322718E-02
2.860000000E+01 9.999953891E-01 2.081432008E-07 4.335111799E-02
2.870000000E+01 9.999954212E-01 2.066952525E-07 4.320006880E-02
2.880000000E+01 9.999954530E-01 2.052623608E-07 4.305006856E-02
2.890000000E+01 9.999954844E-01 2.038443176E-07 4.290110639E-02
2.900000000E+01 9.999955155E-01 2.024409186E-07 4.275317154E-02
2.910000000E+01 9.999955479E-01 1.887521620E-07 4.260625342E-02
2.920000000E+01 9.999955785E-01 1.863143804E-07 4.246034160E-02
2.930000000E+01 9.999956088E-01 1.839132021E-07 4.231542575E-02
2.940000000E+01 9.999956388E-01 1.815479719E-07 4.217149573E-02
2.950000000E+01 9.999956685E-01 1.792180481E-07 4.202854151E-02
2.960000000E+01 9.999956978E-01 1.769228027E-07 4.188655320E-02
2.970000000E+01 9.999957269E-01 1.746616204E-07 4.174552103E-02
2.980000000E+01 9.999957557E-01 1.724338991E-07 4.160543539E-02
2.990000000E+01 9.999957842E-01 1.702390490E-07 4.146628678E-02
3.000000000E+01 9.999958124E-01 1.680764925E-07 4.132806582E-02
3.010000000E+01 9.999958402E-01 1.668278919E-07 4.119076328E-02
3.020000000E+01 9.999958677E-01 1.657249006E-07 4.105437002E-02
3.030000000E+01 9.999958949E-01 1.646328120E-07 4.091887705E-02
3.040000000E+01 9.999959219E-01 1.635514828E-07 4.078427548E-02
3.050000000E+01 9.999959486E-01 1.624807722E-07 4.065055654E-02
3.060000000E+01 9.999959750E-01 1.614205416E-07 4.051771159E-02
3.070000000E+01 9.999960012E-01 1.603706547E-07 4.038573207E-02
3.080000000E+01 9.999960271E-01 1.593309774E-07 4.025460956E-02
3.090000000E+01 9.999960528E-01 1.583013776E-07 4.012433575E-02
3.100000000E+01 9.999960782E-01 1.572817257E-07 3.999490241E-02
3.110000000E+01 9.999961054E-01 1.468550291E-07 3.986630143E-02
3.120000000E+01 9.999961305E-01 1.450870403E-07 3.973852483E-02
3.130000000E+01 9.999961554E-01 1.433438693E-07 3.961156468E-02
3.140000000E+01 9.999961800E-01 1.416251003E-07 3.948541320E-02
3.150000000E+01 9.999962044E-01 1.399303256E-07 3.936006269E-02
3.160000000E+01 9.999962285E-01 1.382591456E-07 3.923550552E-02
3.170000000E+01 9.999962525E-01 1.366111685E-07 3.911173421E-02
3.180000000E+01 9.999962762E-01 1.349860101E-07 3.898874134E-02
3.190000000E+01 9.999962996E-01 1.333832936E-07 3.886651958E-02
3.200000000E+01 9.999963229E-01 1.318026496E-07 3.874506171E-02
3.210000000E+01 9.999963459E-01 1.303394708E-07 3.862436058E-02
3.220000000E+01 9.999963686E-01 1.295311659E-07 3.850440915E-02
3.230000000E+01 9.999963910E-01 1.287303569E-07 3.838520045E-02
3.240000000E+01 9.999964133E-01 1.279369514E-07 3.826672761E-02
3.250000000E+01 9.999964353E-01 1.271508583E-07 3.814898383E-02
3.260000000E+01 9.999964571E-01 1.263719881E-07 3.803196241E-02
3.270000000E+01 9.999964788E-01 1.256002526E-07 3.791565672E-02
