# 08/03/2022 
# Density retrieved from www.chemicool.com/densities.html 
# Includes the real (n) and complex (k) part of the  refractive index. 
# Element, P  (Z = 15) 
# Nominal density, g cm-3 =  1.82 
#    E [keV]      n       k    Wavelength [nm] 
2.000000000E+00 9.999239600E-01 2.539953160E-06 6.199209873E-01
2.100000000E+00 9.999396239E-01 2.030931218E-06 5.904009403E-01
2.200000000E+00 9.999444535E-01 2.022117169E-05 5.635645339E-01
2.300000000E+00 9.999420339E-01 1.733785356E-05 5.390617281E-01
2.400000000E+00 9.999436706E-01 1.518756309E-05 5.166008227E-01
2.500000000E+00 9.999459925E-01 1.291983027E-05 4.959367898E-01
2.600000000E+00 9.999494483E-01 1.162690933E-05 4.768622979E-01
2.700000000E+00 9.999518174E-01 9.764386352E-06 4.592007313E-01
2.800000000E+00 9.999550744E-01 8.983449391E-06 4.428007052E-01
2.900000000E+00 9.999573065E-01 7.544601415E-06 4.275317154E-01
3.000000000E+00 9.999600860E-01 7.030284372E-06 4.132806582E-01
3.100000000E+00 9.999620981E-01 5.921240401E-06 3.999490241E-01
3.200000000E+00 9.999644181E-01 5.541910389E-06 3.874506171E-01
3.300000000E+00 9.999662414E-01 4.708057849E-06 3.757096893E-01
3.400000000E+00 9.999681715E-01 4.390795034E-06 3.646594043E-01
3.500000000E+00 9.999697999E-01 3.794145597E-06 3.542405642E-01
3.600000000E+00 9.999714153E-01 3.503298248E-06 3.444005485E-01
3.700000000E+00 9.999728569E-01 3.093143334E-06 3.350924256E-01
3.800000000E+00 9.999742219E-01 2.811243945E-06 3.262742038E-01
3.900000000E+00 9.999755269E-01 2.668925875E-06 3.179081986E-01
4.000000000E+00 9.999766728E-01 2.321586719E-06 3.099604936E-01
4.100000000E+00 9.999777823E-01 2.159327097E-06 3.024004816E-01
4.200000000E+00 9.999787670E-01 1.939640782E-06 2.952004701E-01
4.300000000E+00 9.999797056E-01 1.777508114E-06 2.883353429E-01
4.400000000E+00 9.999806055E-01 1.673924702E-06 2.817822670E-01
4.500000000E+00 9.999814446E-01 1.495855577E-06 2.755204388E-01
4.600000000E+00 9.999822354E-01 1.374367595E-06 2.695308640E-01
4.700000000E+00 9.999829810E-01 1.298855801E-06 2.637961648E-01
4.800000000E+00 9.999836799E-01 1.168575450E-06 2.583004114E-01
4.900000000E+00 9.999843377E-01 1.079630905E-06 2.530289744E-01
5.000000000E+00 9.999849572E-01 1.016127638E-06 2.479683949E-01
5.100000000E+00 9.999855413E-01 9.766701634E-07 2.431062695E-01
5.200000000E+00 9.999860948E-01 8.606035882E-07 2.384311490E-01
5.300000000E+00 9.999866155E-01 8.007314304E-07 2.339324480E-01
5.400000000E+00 9.999871066E-01 7.713493100E-07 2.296003657E-01
5.500000000E+00 9.999875759E-01 6.946380323E-07 2.254258136E-01
5.600000000E+00 9.999880177E-01 6.481533704E-07 2.214003526E-01
5.700000000E+00 9.999884357E-01 6.130073602E-07 2.175161359E-01
5.800000000E+00 9.999888310E-01 5.920514011E-07 2.137658577E-01
5.900000000E+00 9.999892127E-01 5.310026388E-07 2.101427076E-01
6.000000000E+00 9.999895716E-01 4.977165240E-07 2.066403291E-01
6.100000000E+00 9.999899119E-01 4.739679568E-07 2.032527827E-01
6.200000000E+00 9.999902347E-01 4.588019686E-07 1.999745120E-01
6.300000000E+00 9.999905486E-01 4.131499791E-07 1.968003134E-01
6.400000000E+00 9.999908440E-01 3.888613502E-07 1.937253085E-01
6.500000000E+00 9.999911250E-01 3.696590651E-07 1.907449192E-01
6.600000000E+00 9.999913919E-01 3.585421373E-07 1.878548446E-01
6.700000000E+00 9.999916523E-01 3.265681235E-07 1.850510410E-01
6.800000000E+00 9.999918982E-01 3.085501735E-07 1.823297021E-01
6.900000000E+00 9.999921333E-01 2.916708151E-07 1.796872427E-01
7.000000000E+00 9.999923567E-01 2.822576772E-07 1.771202821E-01
7.100000000E+00 9.999925705E-01 2.743627491E-07 1.746256302E-01
7.200000000E+00 9.999927810E-01 2.481131502E-07 1.722002742E-01
7.300000000E+00 9.999929793E-01 2.353240399E-07 1.698413664E-01
7.400000000E+00 9.999931693E-01 2.236728321E-07 1.675462128E-01
7.500000000E+00 9.999933502E-01 2.177479873E-07 1.653122633E-01
7.600000000E+00 9.999935241E-01 2.120554759E-07 1.631371019E-01
7.700000000E+00 9.999936961E-01 1.919640940E-07 1.610184383E-01
7.800000000E+00 9.999938582E-01 1.826718019E-07 1.589540993E-01
7.900000000E+00 9.999940141E-01 1.738941426E-07 1.569420221E-01
8.000000000E+00 9.999941628E-01 1.694887824E-07 1.549802468E-01
8.100000000E+00 9.999943061E-01 1.653297070E-07 1.530669104E-01
8.200000000E+00 9.999944480E-01 1.509124708E-07 1.512002408E-01
8.300000000E+00 9.999945822E-01 1.440506891E-07 1.493785512E-01
8.400000000E+00 9.999947116E-01 1.375464237E-07 1.476002351E-01
8.500000000E+00 9.999948358E-01 1.329689578E-07 1.458637617E-01
8.600000000E+00 9.999949552E-01 1.298946349E-07 1.441676715E-01
8.700000000E+00 9.999950705E-01 1.269257128E-07 1.425105718E-01
8.800000000E+00 9.999951854E-01 1.151342270E-07 1.408911335E-01
8.900000000E+00 9.999952939E-01 1.102242785E-07 1.393080870E-01
9.000000000E+00 9.999953987E-01 1.055536994E-07 1.377602194E-01
9.100000000E+00 9.999954995E-01 1.025966583E-07 1.362463708E-01
9.200000000E+00 9.999955969E-01 1.003784177E-07 1.347654320E-01
9.300000000E+00 9.999956910E-01 9.823134780E-08 1.333163414E-01
9.400000000E+00 9.999957852E-01 8.894997295E-08 1.318980824E-01
9.500000000E+00 9.999958742E-01 8.527478779E-08 1.305096815E-01
9.600000000E+00 9.999959604E-01 8.176961041E-08 1.291502057E-01
9.700000000E+00 9.999960436E-01 7.915298341E-08 1.278187603E-01
9.800000000E+00 9.999961240E-01 7.754585807E-08 1.265144872E-01
9.900000000E+00 9.999962019E-01 7.598718712E-08 1.252365631E-01
1.000000000E+01 9.999962799E-01 6.949237273E-08 1.239841975E-01
1.010000000E+01 9.999963538E-01 6.676523957E-08 1.227566311E-01
1.020000000E+01 9.999964256E-01 6.415727497E-08 1.215531348E-01
1.030000000E+01 9.999964953E-01 6.166236747E-08 1.203730072E-01
1.040000000E+01 9.999965625E-01 6.019744067E-08 1.192155745E-01
1.050000000E+01 9.999966277E-01 5.905628284E-08 1.180801881E-01
1.060000000E+01 9.999966910E-01 5.794726934E-08 1.169662240E-01
1.070000000E+01 9.999967547E-01 5.294482917E-08 1.158730817E-01
1.080000000E+01 9.999968151E-01 5.099116378E-08 1.148001828E-01
1.090000000E+01 9.999968738E-01 4.911756375E-08 1.137469701E-01
1.100000000E+01 9.999969308E-01 4.732017882E-08 1.127129068E-01
1.110000000E+01 9.999969860E-01 4.620145367E-08 1.116974752E-01
1.120000000E+01 9.999970396E-01 4.538011086E-08 1.107001763E-01
1.130000000E+01 9.999970918E-01 4.458047699E-08 1.097205287E-01
1.140000000E+01 9.999971426E-01 4.380179368E-08 1.087580679E-01
1.150000000E+01 9.999971941E-01 3.964319681E-08 1.078123456E-01
1.160000000E+01 9.999972427E-01 3.828562792E-08 1.068829288E-01
1.170000000E+01 9.999972900E-01 3.697985718E-08 1.059693995E-01
1.180000000E+01 9.999973362E-01 3.574372792E-08 1.050713538E-01
1.190000000E+01 9.999973807E-01 3.514551709E-08 1.041884012E-01
1.200000000E+01 9.999974242E-01 3.456219913E-08 1.033201645E-01
1.210000000E+01 9.999974666E-01 3.399328376E-08 1.024662789E-01
1.220000000E+01 9.999975094E-01 3.127968396E-08 1.016263914E-01
1.230000000E+01 9.999975501E-01 3.026800604E-08 1.008001605E-01
1.240000000E+01 9.999975898E-01 2.929277909E-08 9.998725601E-02
1.250000000E+01 9.999976285E-01 2.835245961E-08 9.918735797E-02
1.260000000E+01 9.999976663E-01 2.744558009E-08 9.840015671E-02
1.270000000E+01 9.999977029E-01 2.698057009E-08 9.762535233E-02
1.280000000E+01 9.999977387E-01 2.656064545E-08 9.686265426E-02
1.290000000E+01 9.999977736E-01 2.615044859E-08 9.611178098E-02
1.300000000E+01 9.999978077E-01 2.574968136E-08 9.537245958E-02
1.310000000E+01 9.999978424E-01 2.350026052E-08 9.464442554E-02
1.320000000E+01 9.999978752E-01 2.279054171E-08 9.392742232E-02
1.330000000E+01 9.999979073E-01 2.210468896E-08 9.322120110E-02
1.340000000E+01 9.999979386E-01 2.144175879E-08 9.252552049E-02
1.350000000E+01 9.999979692E-01 2.087651942E-08 9.184014627E-02
1.360000000E+01 9.999979990E-01 2.057064049E-08 9.116485107E-02
1.370000000E+01 9.999980281E-01 2.027143516E-08 9.049941420E-02
1.380000000E+01 9.999980566E-01 1.997871069E-08 8.984362135E-02
1.390000000E+01 9.999980844E-01 1.969228127E-08 8.919726436E-02
1.400000000E+01 9.999981128E-01 1.799993431E-08 8.856014104E-02
1.410000000E+01 9.999981397E-01 1.749134148E-08 8.793205493E-02
1.420000000E+01 9.999981660E-01 1.699876918E-08 8.731281511E-02
1.430000000E+01 9.999981917E-01 1.652162375E-08 8.670223598E-02
1.440000000E+01 9.999982169E-01 1.605933718E-08 8.610013712E-02
1.450000000E+01 9.999982414E-01 1.582323362E-08 8.550634307E-02
1.460000000E+01 9.999982654E-01 1.560721932E-08 8.492068319E-02
1.470000000E+01 9.999982890E-01 1.539559845E-08 8.434299147E-02
1.480000000E+01 9.999983120E-01 1.518825269E-08 8.377310639E-02
1.490000000E+01 9.999983354E-01 1.402049580E-08 8.321087078E-02
1.500000000E+01 9.999983576E-01 1.364886796E-08 8.265613164E-02
1.510000000E+01 9.999983795E-01 1.328824420E-08 8.210874004E-02
1.520000000E+01 9.999984009E-01 1.293824092E-08 8.156855096E-02
1.530000000E+01 9.999984218E-01 1.259849007E-08 8.103542318E-02
1.540000000E+01 9.999984424E-01 1.226863846E-08 8.050921913E-02
1.550000000E+01 9.999984624E-01 1.210795994E-08 7.998980481E-02
1.560000000E+01 9.999984821E-01 1.195322722E-08 7.947704965E-02
1.570000000E+01 9.999985014E-01 1.180144174E-08 7.897082641E-02
1.580000000E+01 9.999985203E-01 1.165252914E-08 7.847101105E-02
1.590000000E+01 9.999985388E-01 1.150641737E-08 7.797748268E-02
1.600000000E+01 9.999985578E-01 1.053571272E-08 7.749012341E-02
1.610000000E+01 9.999985757E-01 1.027458289E-08 7.700881830E-02
1.620000000E+01 9.999985934E-01 1.002067111E-08 7.653345522E-02
1.630000000E+01 9.999986107E-01 9.773742506E-09 7.606392482E-02
1.640000000E+01 9.999986277E-01 9.533571109E-09 7.560012040E-02
1.650000000E+01 9.999986443E-01 9.343377359E-09 7.514193785E-02
1.660000000E+01 9.999986606E-01 9.231145616E-09 7.468927558E-02
1.670000000E+01 9.999986766E-01 9.120923970E-09 7.424203441E-02
1.680000000E+01 9.999986923E-01 9.012664704E-09 7.380011753E-02
1.690000000E+01 9.999987077E-01 8.906321508E-09 7.336343045E-02
1.700000000E+01 9.999987229E-01 8.801849433E-09 7.293188086E-02
1.710000000E+01 9.999987384E-01 8.068832246E-09 7.250537863E-02
1.720000000E+01 9.999987531E-01 7.881632996E-09 7.208383573E-02
1.730000000E+01 9.999987675E-01 7.699280504E-09 7.166716616E-02
1.740000000E+01 9.999987817E-01 7.521626981E-09 7.125528590E-02
1.750000000E+01 9.999987957E-01 7.348529886E-09 7.084811283E-02
1.760000000E+01 9.999988094E-01 7.180792333E-09 7.044556674E-02
1.770000000E+01 9.999988229E-01 7.099882642E-09 7.004756919E-02
1.780000000E+01 9.999988360E-01 7.020332764E-09 6.965404352E-02
1.790000000E+01 9.999988490E-01 6.942112397E-09 6.926491478E-02
1.800000000E+01 9.999988618E-01 6.865192077E-09 6.888010970E-02
1.810000000E+01 9.999988743E-01 6.789543155E-09 6.849955661E-02
1.820000000E+01 9.999988871E-01 6.284042005E-09 6.812318542E-02
1.830000000E+01 9.999988992E-01 6.147333997E-09 6.775092757E-02
1.840000000E+01 9.999989112E-01 6.013952062E-09 6.738271601E-02
1.850000000E+01 9.999989230E-01 5.883800820E-09 6.701848511E-02
1.860000000E+01 9.999989347E-01 5.756788078E-09 6.665817068E-02
1.870000000E+01 9.999989461E-01 5.632824711E-09 6.630170987E-02
1.880000000E+01 9.999989573E-01 5.511824540E-09 6.594904120E-02
1.890000000E+01 9.999989683E-01 5.445227223E-09 6.560010448E-02
1.900000000E+01 9.999989792E-01 5.388059879E-09 6.525484077E-02
1.910000000E+01 9.999989898E-01 5.331788099E-09 6.491319239E-02
1.920000000E+01 9.999990003E-01 5.276393274E-09 6.457510284E-02
1.930000000E+01 9.999990106E-01 5.221857275E-09 6.424051682E-02
1.940000000E+01 9.999990208E-01 5.168162441E-09 6.390938013E-02
1.950000000E+01 9.999990312E-01 4.765038069E-09 6.358163972E-02
1.960000000E+01 9.999990411E-01 4.668028933E-09 6.325724360E-02
1.970000000E+01 9.999990509E-01 4.573226467E-09 6.293614084E-02
1.980000000E+01 9.999990605E-01 4.480571505E-09 6.261828154E-02
1.990000000E+01 9.999990699E-01 4.390006732E-09 6.230361681E-02
2.000000000E+01 9.999990793E-01 4.301476614E-09 6.199209873E-02
2.010000000E+01 9.999990884E-01 4.214927339E-09 6.168368033E-02
2.020000000E+01 9.999990974E-01 4.168556870E-09 6.137831557E-02
2.030000000E+01 9.999991063E-01 4.127588501E-09 6.107595934E-02
2.040000000E+01 9.999991151E-01 4.087221130E-09 6.077656738E-02
2.050000000E+01 9.999991237E-01 4.047443059E-09 6.048009632E-02
2.060000000E+01 9.999991322E-01 4.008242873E-09 6.018650362E-02
2.070000000E+01 9.999991405E-01 3.969609432E-09 5.989574756E-02
2.080000000E+01 9.999991490E-01 3.678333245E-09 5.960778724E-02
2.090000000E+01 9.999991572E-01 3.608195269E-09 5.932258252E-02
2.100000000E+01 9.999991652E-01 3.539553638E-09 5.904009403E-02
2.110000000E+01 9.999991732E-01 3.472370701E-09 5.876028316E-02
2.120000000E+01 9.999991810E-01 3.406609913E-09 5.848311201E-02
2.130000000E+01 9.999991887E-01 3.342235797E-09 5.820854341E-02
2.140000000E+01 9.999991963E-01 3.279213909E-09 5.793654087E-02
2.150000000E+01 9.999992038E-01 3.217850962E-09 5.766706859E-02
2.160000000E+01 9.999992111E-01 3.188125015E-09 5.740009142E-02
2.170000000E+01 9.999992184E-01 3.158809079E-09 5.713557487E-02
2.180000000E+01 9.999992255E-01 3.129895647E-09 5.687348507E-02
2.190000000E+01 9.999992326E-01 3.101377384E-09 5.661378879E-02
2.200000000E+01 9.999992396E-01 3.073247122E-09 5.635645339E-02
2.210000000E+01 9.999992464E-01 3.045497855E-09 5.610144681E-02
2.220000000E+01 9.999992532E-01 3.018122732E-09 5.584873759E-02
2.230000000E+01 9.999992601E-01 2.782086372E-09 5.559829482E-02
2.240000000E+01 9.999992667E-01 2.732481572E-09 5.535008815E-02
2.250000000E+01 9.999992733E-01 2.683865434E-09 5.510408776E-02
2.260000000E+01 9.999992797E-01 2.636214717E-09 5.486026436E-02
2.270000000E+01 9.999992861E-01 2.589506820E-09 5.461858919E-02
2.280000000E+01 9.999992923E-01 2.543719757E-09 5.437903397E-02
2.290000000E+01 9.999992985E-01 2.498832141E-09 5.414157094E-02
2.300000000E+01 9.999993046E-01 2.458980122E-09 5.390617281E-02
2.310000000E+01 9.999993106E-01 2.437736333E-09 5.367281275E-02
2.320000000E+01 9.999993166E-01 2.416766655E-09 5.344146442E-02
2.330000000E+01 9.999993224E-01 2.396066394E-09 5.321210191E-02
2.340000000E+01 9.999993282E-01 2.375630953E-09 5.298469977E-02
2.350000000E+01 9.999993339E-01 2.355455834E-09 5.275923296E-02
2.360000000E+01 9.999993395E-01 2.335536636E-09 5.253567689E-02
2.370000000E+01 9.999993451E-01 2.315869046E-09 5.231400737E-02
2.380000000E+01 9.999993508E-01 2.143214853E-09 5.209420061E-02
2.390000000E+01 9.999993562E-01 2.107470174E-09 5.187623325E-02
2.400000000E+01 9.999993616E-01 2.072393072E-09 5.166008227E-02
2.410000000E+01 9.999993669E-01 2.037968833E-09 5.144572509E-02
2.420000000E+01 9.999993721E-01 2.004183123E-09 5.123313945E-02
2.430000000E+01 9.999993773E-01 1.971021972E-09 5.102230348E-02
2.440000000E+01 9.999993824E-01 1.938471770E-09 5.081319568E-02
2.450000000E+01 9.999993875E-01 1.906519251E-09 5.060579488E-02
2.460000000E+01 9.999993924E-01 1.879782515E-09 5.040008027E-02
2.470000000E+01 9.999993974E-01 1.864592415E-09 5.019603136E-02
2.480000000E+01 9.999994022E-01 1.849585696E-09 4.999362801E-02
2.490000000E+01 9.999994070E-01 1.834759418E-09 4.979285038E-02
2.500000000E+01 9.999994117E-01 1.820110699E-09 4.959367898E-02
2.510000000E+01 9.999994164E-01 1.805636715E-09 4.939609460E-02
2.520000000E+01 9.999994210E-01 1.791334698E-09 4.920007836E-02
2.530000000E+01 9.999994256E-01 1.777201935E-09 4.900561164E-02
2.540000000E+01 9.999994302E-01 1.651112314E-09 4.881267616E-02
2.550000000E+01 9.999994347E-01 1.625260828E-09 4.862125391E-02
2.560000000E+01 9.999994391E-01 1.599862299E-09 4.843132713E-02
2.570000000E+01 9.999994435E-01 1.574907361E-09 4.824287839E-02
2.580000000E+01 9.999994478E-01 1.550386873E-09 4.805589049E-02
2.590000000E+01 9.999994521E-01 1.526291915E-09 4.787034651E-02
2.600000000E+01 9.999994563E-01 1.502613779E-09 4.768622979E-02
2.610000000E+01 9.999994605E-01 1.479343967E-09 4.750352393E-02
2.620000000E+01 9.999994646E-01 1.456474181E-09 4.732221277E-02
2.630000000E+01 9.999994687E-01 1.438295524E-09 4.714228040E-02
2.640000000E+01 9.999994727E-01 1.427419982E-09 4.696371116E-02
2.650000000E+01 9.999994767E-01 1.416667327E-09 4.678648961E-02
2.660000000E+01 9.999994806E-01 1.406035715E-09 4.661060055E-02
2.670000000E+01 9.999994845E-01 1.395523336E-09 4.643602901E-02
2.680000000E+01 9.999994883E-01 1.385128412E-09 4.626276025E-02
2.690000000E+01 9.999994921E-01 1.374849201E-09 4.609077972E-02
2.700000000E+01 9.999994959E-01 1.364683993E-09 4.592007313E-02
2.710000000E+01 9.999994996E-01 1.354631106E-09 4.575062637E-02
2.720000000E+01 9.999995034E-01 1.250972237E-09 4.558242554E-02
2.730000000E+01 9.999995070E-01 1.232280548E-09 4.541545694E-02
2.740000000E+01 9.999995106E-01 1.213897064E-09 4.524970710E-02
2.750000000E+01 9.999995142E-01 1.195815804E-09 4.508516271E-02
2.760000000E+01 9.999995177E-01 1.178030927E-09 4.492181067E-02
2.770000000E+01 9.999995212E-01 1.160536721E-09 4.475963807E-02
2.780000000E+01 9.999995247E-01 1.143327602E-09 4.459863218E-02
2.790000000E+01 9.999995281E-01 1.126398114E-09 4.443878045E-02
2.800000000E+01 9.999995314E-01 1.109742919E-09 4.428007052E-02
2.810000000E+01 9.999995348E-01 1.095380499E-09 4.412249020E-02
2.820000000E+01 9.999995381E-01 1.087625617E-09 4.396602747E-02
2.830000000E+01 9.999995413E-01 1.079952797E-09 4.381067048E-02
2.840000000E+01 9.999995446E-01 1.072360885E-09 4.365640756E-02
2.850000000E+01 9.999995477E-01 1.064848748E-09 4.350322718E-02
2.860000000E+01 9.999995509E-01 1.057415272E-09 4.335111799E-02
2.870000000E+01 9.999995540E-01 1.050059362E-09 4.320006880E-02
2.880000000E+01 9.999995571E-01 1.042779943E-09 4.305006856E-02
2.890000000E+01 9.999995602E-01 1.035575958E-09 4.290110639E-02
2.900000000E+01 9.999995632E-01 1.028446368E-09 4.275317154E-02
2.910000000E+01 9.999995663E-01 9.477296648E-10 4.260625342E-02
2.920000000E+01 9.999995693E-01 9.343793475E-10 4.246034160E-02
2.930000000E+01 9.999995722E-01 9.212354725E-10 4.231542575E-02
2.940000000E+01 9.999995751E-01 9.082942888E-10 4.217149573E-02
2.950000000E+01 9.999995780E-01 8.955521244E-10 4.202854151E-02
2.960000000E+01 9.999995809E-01 8.830053850E-10 4.188655320E-02
2.970000000E+01 9.999995837E-01 8.706505521E-10 4.174552103E-02
2.980000000E+01 9.999995865E-01 8.584841807E-10 4.160543539E-02
2.990000000E+01 9.999995893E-01 8.465028982E-10 4.146628678E-02
3.000000000E+01 9.999995920E-01 8.347034019E-10 4.132806582E-02
3.010000000E+01 9.999995947E-01 8.283659060E-10 4.119076328E-02
3.020000000E+01 9.999995974E-01 8.228891216E-10 4.105437002E-02
3.030000000E+01 9.999996000E-01 8.174664733E-10 4.091887705E-02
3.040000000E+01 9.999996027E-01 8.120972499E-10 4.078427548E-02
3.050000000E+01 9.999996053E-01 8.067807519E-10 4.065055654E-02
3.060000000E+01 9.999996078E-01 8.015162912E-10 4.051771159E-02
3.070000000E+01 9.999996104E-01 7.963031910E-10 4.038573207E-02
3.080000000E+01 9.999996129E-01 7.911407852E-10 4.025460956E-02
3.090000000E+01 9.999996154E-01 7.860284187E-10 4.012433575E-02
3.100000000E+01 9.999996179E-01 7.809654469E-10 3.999490241E-02
3.110000000E+01 9.999996204E-01 7.204437825E-10 3.986630143E-02
3.120000000E+01 9.999996229E-01 7.109516293E-10 3.973852483E-02
3.130000000E+01 9.999996253E-01 7.015968717E-10 3.961156468E-02
3.140000000E+01 9.999996277E-01 6.923771720E-10 3.948541320E-02
3.150000000E+01 9.999996300E-01 6.832902388E-10 3.936006269E-02
3.160000000E+01 9.999996324E-01 6.743338260E-10 3.923550552E-02
3.170000000E+01 9.999996347E-01 6.655057318E-10 3.911173421E-02
3.180000000E+01 9.999996370E-01 6.568037977E-10 3.898874134E-02
3.190000000E+01 9.999996393E-01 6.482259075E-10 3.886651958E-02
3.200000000E+01 9.999996415E-01 6.397699862E-10 3.874506171E-02
3.210000000E+01 9.999996438E-01 6.319984245E-10 3.862436058E-02
3.220000000E+01 9.999996460E-01 6.280790639E-10 3.850440915E-02
3.230000000E+01 9.999996482E-01 6.241960496E-10 3.838520045E-02
3.240000000E+01 9.999996503E-01 6.203489337E-10 3.826672761E-02
3.250000000E+01 9.999996525E-01 6.165372749E-10 3.814898383E-02
3.260000000E+01 9.999996546E-01 6.127606389E-10 3.803196241E-02
3.270000000E+01 9.999996567E-01 6.090185979E-10 3.791565672E-02
