# 08/03/2022 
# Density retrieved from www.chemicool.com/densities.html 
# Includes the real (n) and complex (k) part of the  refractive index. 
# Element, Pd  (Z = 46) 
# Nominal density, g cm-3 =  12.02 
#    E [keV]      n       k    Wavelength [nm] 
2.000000000E+00 9.995278191E-01 7.397167258E-05 6.199209873E-01
2.100000000E+00 9.995743328E-01 6.130345824E-05 5.904009403E-01
2.200000000E+00 9.996146835E-01 5.170696355E-05 5.635645339E-01
2.300000000E+00 9.996498011E-01 4.440352136E-05 5.390617281E-01
2.400000000E+00 9.996800555E-01 3.885114043E-05 5.166008227E-01
2.500000000E+00 9.997084365E-01 3.333064260E-05 4.959367898E-01
2.600000000E+00 9.997314073E-01 3.008495953E-05 4.768622979E-01
2.700000000E+00 9.997558492E-01 2.560949166E-05 4.592007313E-01
2.800000000E+00 9.997734407E-01 2.359710215E-05 4.428007052E-01
2.900000000E+00 9.997963990E-01 2.006468327E-05 4.275317154E-01
3.000000000E+00 9.998099269E-01 1.870338726E-05 4.132806582E-01
3.100000000E+00 9.998389870E-01 1.578855839E-05 3.999490241E-01
3.200000000E+00 9.998670548E-01 4.679319084E-05 3.874506171E-01
3.300000000E+00 9.998626427E-01 4.371665406E-05 3.757096893E-01
3.400000000E+00 9.998596614E-01 5.480019284E-05 3.646594043E-01
3.500000000E+00 9.998606004E-01 5.017482413E-05 3.542405642E-01
3.600000000E+00 9.998688186E-01 4.573410459E-05 3.444005485E-01
3.700000000E+00 9.998668931E-01 4.818189580E-05 3.350924256E-01
3.800000000E+00 9.998684365E-01 4.346457665E-05 3.262742038E-01
3.900000000E+00 9.998750969E-01 4.126420032E-05 3.179081986E-01
4.000000000E+00 9.998763976E-01 3.581027867E-05 3.099604936E-01
4.100000000E+00 9.998812158E-01 3.328604917E-05 3.024004816E-01
4.200000000E+00 9.998851096E-01 2.987124437E-05 2.952004701E-01
4.300000000E+00 9.998893437E-01 2.735576008E-05 2.883353429E-01
4.400000000E+00 9.998939761E-01 2.575533363E-05 2.817822670E-01
4.500000000E+00 9.998976147E-01 2.315831950E-05 2.755204388E-01
4.600000000E+00 9.999014592E-01 2.136104362E-05 2.695308640E-01
4.700000000E+00 9.999054354E-01 2.021428117E-05 2.637961648E-01
4.800000000E+00 9.999087493E-01 1.831176056E-05 2.583004114E-01
4.900000000E+00 9.999121175E-01 1.699047281E-05 2.530289744E-01
5.000000000E+00 9.999154393E-01 1.602853611E-05 2.479683949E-01
5.100000000E+00 9.999187229E-01 1.540612852E-05 2.431062695E-01
5.200000000E+00 9.999213436E-01 1.372721491E-05 2.384311490E-01
5.300000000E+00 9.999241168E-01 1.283047568E-05 2.339324480E-01
5.400000000E+00 9.999269013E-01 1.235967290E-05 2.296003657E-01
5.500000000E+00 9.999292961E-01 1.123520637E-05 2.254258136E-01
5.600000000E+00 9.999316917E-01 1.053352987E-05 2.214003526E-01
5.700000000E+00 9.999340058E-01 9.992205092E-06 2.175161359E-01
5.800000000E+00 9.999362619E-01 9.650616630E-06 2.137658577E-01
5.900000000E+00 9.999382396E-01 8.748096930E-06 2.101427076E-01
6.000000000E+00 9.999402182E-01 8.237865827E-06 2.066403291E-01
6.100000000E+00 9.999421319E-01 7.863714161E-06 2.032527827E-01
6.200000000E+00 9.999439836E-01 7.612091674E-06 1.999745120E-01
6.300000000E+00 9.999455857E-01 6.919674303E-06 1.968003134E-01
6.400000000E+00 9.999472133E-01 6.538594214E-06 1.937253085E-01
6.500000000E+00 9.999487869E-01 6.232620783E-06 1.907449192E-01
6.600000000E+00 9.999503271E-01 6.045184300E-06 1.878548446E-01
6.700000000E+00 9.999517294E-01 5.538001818E-06 1.850510410E-01
6.800000000E+00 9.999531111E-01 5.245959868E-06 1.823297021E-01
6.900000000E+00 9.999544343E-01 4.972068545E-06 1.796872427E-01
7.000000000E+00 9.999557232E-01 4.813519341E-06 1.771202821E-01
7.100000000E+00 9.999569617E-01 4.678882121E-06 1.746256302E-01
7.200000000E+00 9.999581112E-01 4.257377801E-06 1.722002742E-01
7.300000000E+00 9.999592388E-01 4.047016510E-06 1.698413664E-01
7.400000000E+00 9.999603222E-01 3.854877079E-06 1.675462128E-01
7.500000000E+00 9.999613732E-01 3.752765668E-06 1.653122633E-01
7.600000000E+00 9.999623830E-01 3.654658394E-06 1.631371019E-01
7.700000000E+00 9.999633551E-01 3.328559573E-06 1.610184383E-01
7.800000000E+00 9.999642891E-01 3.173969803E-06 1.589540993E-01
7.900000000E+00 9.999651878E-01 3.027813517E-06 1.569420221E-01
8.000000000E+00 9.999660527E-01 2.951240776E-06 1.549802468E-01
8.100000000E+00 9.999668857E-01 2.878820449E-06 1.530669104E-01
8.200000000E+00 9.999676980E-01 2.643575806E-06 1.512002408E-01
8.300000000E+00 9.999684747E-01 2.528643884E-06 1.493785512E-01
8.400000000E+00 9.999692237E-01 2.419602864E-06 1.476002351E-01
8.500000000E+00 9.999699448E-01 2.341386817E-06 1.458637617E-01
8.600000000E+00 9.999706397E-01 2.287252535E-06 1.441676715E-01
8.700000000E+00 9.999713108E-01 2.234974204E-06 1.425105718E-01
8.800000000E+00 9.999719671E-01 2.040777960E-06 1.408911335E-01
8.900000000E+00 9.999725956E-01 1.957539610E-06 1.393080870E-01
9.000000000E+00 9.999732032E-01 1.878294163E-06 1.377602194E-01
9.100000000E+00 9.999737895E-01 1.826774056E-06 1.362463708E-01
9.200000000E+00 9.999743562E-01 1.787277405E-06 1.347654320E-01
9.300000000E+00 9.999749047E-01 1.749047977E-06 1.333163414E-01
9.400000000E+00 9.999754547E-01 1.594908962E-06 1.318980824E-01
9.500000000E+00 9.999759735E-01 1.532036066E-06 1.305096815E-01
9.600000000E+00 9.999764760E-01 1.472024399E-06 1.291502057E-01
9.700000000E+00 9.999769610E-01 1.426554609E-06 1.278187603E-01
9.800000000E+00 9.999774288E-01 1.397589787E-06 1.265144872E-01
9.900000000E+00 9.999778825E-01 1.369498247E-06 1.252365631E-01
1.000000000E+01 9.999783424E-01 1.262109942E-06 1.239841975E-01
1.010000000E+01 9.999787745E-01 1.215403214E-06 1.227566311E-01
1.020000000E+01 9.999791938E-01 1.170696367E-06 1.215531348E-01
1.030000000E+01 9.999796008E-01 1.127887894E-06 1.203730072E-01
1.040000000E+01 9.999799923E-01 1.101721429E-06 1.192155745E-01
1.050000000E+01 9.999803716E-01 1.080836188E-06 1.180801881E-01
1.060000000E+01 9.999807402E-01 1.060539247E-06 1.169662240E-01
1.070000000E+01 9.999811189E-01 9.768404517E-07 1.158730817E-01
1.080000000E+01 9.999814720E-01 9.428970856E-07 1.148001828E-01
1.090000000E+01 9.999818153E-01 9.103162859E-07 1.137469701E-01
1.100000000E+01 9.999821491E-01 8.790332122E-07 1.127129068E-01
1.110000000E+01 9.999824707E-01 8.588658710E-07 1.116974752E-01
1.120000000E+01 9.999827823E-01 8.435974487E-07 1.107001763E-01
1.130000000E+01 9.999830857E-01 8.287325865E-07 1.097205287E-01
1.140000000E+01 9.999833812E-01 8.142571866E-07 1.087580679E-01
1.150000000E+01 9.999836907E-01 7.442254726E-07 1.078123456E-01
1.160000000E+01 9.999839750E-01 7.203124638E-07 1.068829288E-01
1.170000000E+01 9.999842520E-01 6.972918996E-07 1.059693995E-01
1.180000000E+01 9.999845217E-01 6.754559404E-07 1.050713538E-01
1.190000000E+01 9.999847807E-01 6.641514380E-07 1.041884012E-01
1.200000000E+01 9.999850333E-01 6.531283690E-07 1.033201645E-01
1.210000000E+01 9.999852797E-01 6.423774683E-07 1.024662789E-01
1.220000000E+01 9.999855366E-01 5.960788555E-07 1.016263914E-01
1.230000000E+01 9.999857747E-01 5.780458718E-07 1.008001605E-01
1.240000000E+01 9.999860070E-01 5.606477088E-07 9.998725601E-02
1.250000000E+01 9.999862337E-01 5.438578006E-07 9.918735797E-02
1.260000000E+01 9.999864548E-01 5.276508799E-07 9.840015671E-02
1.270000000E+01 9.999866676E-01 5.188018210E-07 9.762535233E-02
1.280000000E+01 9.999868751E-01 5.107272077E-07 9.686265426E-02
1.290000000E+01 9.999870778E-01 5.028396473E-07 9.611178098E-02
1.300000000E+01 9.999872758E-01 4.951334066E-07 9.537245958E-02
1.310000000E+01 9.999874863E-01 4.563359045E-07 9.464442554E-02
1.320000000E+01 9.999876784E-01 4.434731467E-07 9.392742232E-02
1.330000000E+01 9.999878661E-01 4.310326892E-07 9.322120110E-02
1.340000000E+01 9.999880496E-01 4.189980397E-07 9.252552049E-02
1.350000000E+01 9.999882282E-01 4.086269706E-07 9.184014627E-02
1.360000000E+01 9.999884007E-01 4.026398431E-07 9.116485107E-02
1.370000000E+01 9.999885694E-01 3.967833416E-07 9.049941420E-02
1.380000000E+01 9.999887345E-01 3.910536935E-07 8.984362135E-02
1.390000000E+01 9.999888960E-01 3.854472614E-07 8.919726436E-02
1.400000000E+01 9.999890694E-01 3.554782843E-07 8.856014104E-02
1.410000000E+01 9.999892266E-01 3.460468714E-07 8.793205493E-02
1.420000000E+01 9.999893805E-01 3.369061378E-07 8.731281511E-02
1.430000000E+01 9.999895311E-01 3.280454312E-07 8.670223598E-02
1.440000000E+01 9.999896785E-01 3.194545554E-07 8.610013712E-02
1.450000000E+01 9.999898206E-01 3.147971761E-07 8.550634307E-02
1.460000000E+01 9.999899595E-01 3.104996541E-07 8.492068319E-02
1.470000000E+01 9.999900957E-01 3.062895380E-07 8.434299147E-02
1.480000000E+01 9.999902291E-01 3.021644735E-07 8.377310639E-02
1.490000000E+01 9.999903726E-01 2.809014485E-07 8.321087078E-02
1.500000000E+01 9.999905030E-01 2.738601775E-07 8.265613164E-02
1.510000000E+01 9.999906308E-01 2.670234145E-07 8.210874004E-02
1.520000000E+01 9.999907560E-01 2.603841000E-07 8.156855096E-02
1.530000000E+01 9.999908788E-01 2.539354587E-07 8.103542318E-02
1.540000000E+01 9.999909991E-01 2.476709875E-07 8.050921913E-02
1.550000000E+01 9.999911149E-01 2.444340499E-07 7.998980481E-02
1.560000000E+01 9.999912284E-01 2.413103242E-07 7.947704965E-02
1.570000000E+01 9.999913398E-01 2.382460971E-07 7.897082641E-02
1.580000000E+01 9.999914491E-01 2.352398674E-07 7.847101105E-02
1.590000000E+01 9.999915563E-01 2.322901803E-07 7.797748268E-02
1.600000000E+01 9.999916754E-01 2.140662530E-07 7.749012341E-02
1.610000000E+01 9.999917806E-01 2.089943612E-07 7.700881830E-02
1.620000000E+01 9.999918839E-01 2.040605214E-07 7.653345522E-02
1.630000000E+01 9.999919853E-01 1.992602765E-07 7.606392482E-02
1.640000000E+01 9.999920848E-01 1.945893371E-07 7.560012040E-02
1.650000000E+01 9.999921817E-01 1.908484298E-07 7.514193785E-02
1.660000000E+01 9.999922756E-01 1.885559770E-07 7.468927558E-02
1.670000000E+01 9.999923678E-01 1.863045825E-07 7.424203441E-02
1.680000000E+01 9.999924584E-01 1.840932717E-07 7.380011753E-02
1.690000000E+01 9.999925474E-01 1.819210987E-07 7.336343045E-02
1.700000000E+01 9.999926348E-01 1.797871454E-07 7.293188086E-02
1.710000000E+01 9.999927345E-01 1.658574574E-07 7.250537863E-02
1.720000000E+01 9.999928208E-01 1.621765649E-07 7.208383573E-02
1.730000000E+01 9.999929056E-01 1.585895389E-07 7.166716616E-02
1.740000000E+01 9.999929889E-01 1.550935391E-07 7.125528590E-02
1.750000000E+01 9.999930707E-01 1.516858254E-07 7.084811283E-02
1.760000000E+01 9.999931511E-01 1.483814111E-07 7.044556674E-02
1.770000000E+01 9.999932282E-01 1.467095212E-07 7.004756919E-02
1.780000000E+01 9.999933041E-01 1.450657300E-07 6.965404352E-02
1.790000000E+01 9.999933787E-01 1.434494114E-07 6.926491478E-02
1.800000000E+01 9.999934521E-01 1.418599565E-07 6.888010970E-02
1.810000000E+01 9.999935242E-01 1.402967733E-07 6.849955661E-02
1.820000000E+01 9.999936080E-01 1.306304806E-07 6.812318542E-02
1.830000000E+01 9.999936797E-01 1.279204046E-07 6.775092757E-02
1.840000000E+01 9.999937502E-01 1.252751966E-07 6.738271601E-02
1.850000000E+01 9.999938195E-01 1.226930117E-07 6.701848511E-02
1.860000000E+01 9.999938877E-01 1.201720663E-07 6.665817068E-02
1.870000000E+01 9.999939547E-01 1.177106359E-07 6.630170987E-02
1.880000000E+01 9.999940207E-01 1.153070528E-07 6.594904120E-02
1.890000000E+01 9.999940841E-01 1.139312292E-07 6.560010448E-02
1.900000000E+01 9.999941462E-01 1.127351091E-07 6.525484077E-02
1.910000000E+01 9.999942073E-01 1.115577270E-07 6.491319239E-02
1.920000000E+01 9.999942675E-01 1.103986935E-07 6.457510284E-02
1.930000000E+01 9.999943267E-01 1.092576294E-07 6.424051682E-02
1.940000000E+01 9.999943851E-01 1.081341651E-07 6.390938013E-02
1.950000000E+01 9.999944576E-01 1.003860971E-07 6.358163972E-02
1.960000000E+01 9.999945162E-01 9.844446269E-08 6.325724360E-02
1.970000000E+01 9.999945737E-01 9.654622344E-08 6.293614084E-02
1.980000000E+01 9.999946304E-01 9.469022616E-08 6.261828154E-02
1.990000000E+01 9.999946862E-01 9.287535353E-08 6.230361681E-02
2.000000000E+01 9.999947412E-01 9.110052278E-08 6.199209873E-02
2.010000000E+01 9.999947953E-01 8.936468450E-08 6.168368033E-02
2.020000000E+01 9.999948469E-01 8.839215694E-08 6.137831557E-02
2.030000000E+01 9.999948975E-01 8.752344322E-08 6.107595934E-02
2.040000000E+01 9.999949474E-01 8.666747337E-08 6.077656738E-02
2.050000000E+01 9.999949966E-01 8.582399933E-08 6.048009632E-02
2.060000000E+01 9.999950450E-01 8.499277905E-08 6.018650362E-02
2.070000000E+01 9.999950928E-01 8.417357632E-08 5.989574756E-02
2.080000000E+01 9.999951579E-01 7.853415114E-08 5.960778724E-02
2.090000000E+01 9.999952066E-01 7.711605506E-08 5.932258252E-02
2.100000000E+01 9.999952546E-01 7.572764934E-08 5.904009403E-02
2.110000000E+01 9.999953018E-01 7.436819403E-08 5.876028316E-02
2.120000000E+01 9.999953484E-01 7.303697074E-08 5.848311201E-02
2.130000000E+01 9.999953943E-01 7.173328200E-08 5.820854341E-02
2.140000000E+01 9.999954395E-01 7.045645045E-08 5.793654087E-02
2.150000000E+01 9.999954840E-01 6.921230990E-08 5.766706859E-02
2.160000000E+01 9.999955257E-01 6.857293864E-08 5.740009142E-02
2.170000000E+01 9.999955669E-01 6.794238623E-08 5.713557487E-02
2.180000000E+01 9.999956075E-01 6.732049123E-08 5.687348507E-02
2.190000000E+01 9.999956475E-01 6.670709587E-08 5.661378879E-02
2.200000000E+01 9.999956870E-01 6.610204597E-08 5.635645339E-02
2.210000000E+01 9.999957259E-01 6.550519083E-08 5.610144681E-02
2.220000000E+01 9.999957643E-01 6.491638311E-08 5.584873759E-02
2.230000000E+01 9.999958341E-01 6.031642594E-08 5.559829482E-02
2.240000000E+01 9.999958750E-01 5.930186383E-08 5.535008815E-02
2.250000000E+01 9.999959154E-01 5.830711979E-08 5.510408776E-02
2.260000000E+01 9.999959551E-01 5.733173273E-08 5.486026436E-02
2.270000000E+01 9.999959942E-01 5.637525408E-08 5.461858919E-02
2.280000000E+01 9.999960328E-01 5.543724747E-08 5.437903397E-02
2.290000000E+01 9.999960709E-01 5.451728832E-08 5.414157094E-02
2.300000000E+01 9.999961077E-01 5.369489047E-08 5.390617281E-02
2.310000000E+01 9.999961414E-01 5.323100590E-08 5.367281275E-02
2.320000000E+01 9.999961746E-01 5.277310690E-08 5.344146442E-02
2.330000000E+01 9.999962073E-01 5.232109094E-08 5.321210191E-02
2.340000000E+01 9.999962397E-01 5.187485766E-08 5.298469977E-02
2.350000000E+01 9.999963175E-01 4.945015309E-08 5.275923296E-02
2.360000000E+01 9.999963572E-01 4.866261416E-08 5.253567689E-02
2.370000000E+01 9.999963963E-01 4.788966892E-08 5.231400737E-02
2.380000000E+01 9.999964348E-01 4.713099502E-08 5.209420061E-02
2.390000000E+01 9.999964695E-01 4.652122463E-08 5.187623325E-02
2.400000000E+01 9.999964989E-01 4.613435541E-08 5.166008227E-02
2.410000000E+01 9.999965956E-01 4.496232334E-08 5.144572509E-02
2.420000000E+01 9.999966515E-01 4.426764575E-08 5.123313945E-02
2.430000000E+01 9.999967781E-01 4.358051908E-08 5.102230348E-02
2.440000000E+01 9.999967736E-01 1.646219919E-07 5.081319568E-02
2.450000000E+01 9.999967391E-01 2.809964544E-07 5.060579488E-02
2.460000000E+01 9.999967193E-01 2.767948180E-07 5.040008027E-02
2.470000000E+01 9.999967458E-01 2.745581013E-07 5.019603136E-02
2.480000000E+01 9.999967175E-01 2.679430599E-07 4.999362801E-02
2.490000000E+01 9.999967353E-01 2.651053168E-07 4.979285038E-02
2.500000000E+01 9.999967614E-01 2.629887160E-07 4.959367898E-02
2.510000000E+01 9.999967871E-01 2.608973627E-07 4.939609460E-02
2.520000000E+01 9.999968126E-01 2.588308571E-07 4.920007836E-02
2.530000000E+01 9.999968377E-01 2.567888070E-07 4.900561164E-02
2.540000000E+01 9.999968626E-01 2.547708281E-07 4.881267616E-02
2.550000000E+01 9.999968871E-01 2.527765436E-07 4.862125391E-02
2.560000000E+01 9.999968548E-01 2.385733336E-07 4.843132713E-02
2.570000000E+01 9.999968721E-01 2.351839095E-07 4.824287839E-02
2.580000000E+01 9.999968893E-01 2.318515827E-07 4.805589049E-02
2.590000000E+01 9.999969064E-01 2.285752004E-07 4.787034651E-02
2.600000000E+01 9.999969234E-01 2.253536371E-07 4.768622979E-02
2.610000000E+01 9.999969402E-01 2.221857938E-07 4.750352393E-02
2.620000000E+01 9.999969569E-01 2.190705977E-07 4.732221277E-02
2.630000000E+01 9.999969760E-01 2.165342184E-07 4.714228040E-02
2.640000000E+01 9.999969989E-01 2.148969145E-07 4.696371116E-02
2.650000000E+01 9.999970215E-01 2.132781111E-07 4.678648961E-02
2.660000000E+01 9.999970438E-01 2.116775305E-07 4.661060055E-02
2.670000000E+01 9.999970659E-01 2.100949003E-07 4.643602901E-02
2.680000000E+01 9.999970878E-01 2.085299531E-07 4.626276025E-02
2.690000000E+01 9.999971094E-01 2.069824263E-07 4.609077972E-02
2.700000000E+01 9.999971308E-01 2.054520624E-07 4.592007313E-02
2.710000000E+01 9.999971519E-01 2.039386085E-07 4.575062637E-02
2.720000000E+01 9.999971495E-01 1.913645847E-07 4.558242554E-02
2.730000000E+01 9.999971680E-01 1.888371398E-07 4.541545694E-02
2.740000000E+01 9.999971863E-01 1.863496008E-07 4.524970710E-02
2.750000000E+01 9.999972044E-01 1.839012106E-07 4.508516271E-02
2.760000000E+01 9.999972224E-01 1.814912290E-07 4.492181067E-02
2.770000000E+01 9.999972402E-01 1.791189323E-07 4.475963807E-02
2.780000000E+01 9.999972578E-01 1.767836128E-07 4.459863218E-02
2.790000000E+01 9.999972752E-01 1.744845784E-07 4.443878045E-02
2.800000000E+01 9.999972925E-01 1.722211522E-07 4.428007052E-02
2.810000000E+01 9.999973102E-01 1.702318718E-07 4.412249020E-02
2.820000000E+01 9.999973292E-01 1.690266942E-07 4.396602747E-02
2.830000000E+01 9.999973480E-01 1.678342697E-07 4.381067048E-02
2.840000000E+01 9.999973667E-01 1.666544191E-07 4.365640756E-02
2.850000000E+01 9.999973851E-01 1.654869662E-07 4.350322718E-02
2.860000000E+01 9.999974034E-01 1.643317379E-07 4.335111799E-02
2.870000000E+01 9.999974214E-01 1.631885640E-07 4.320006880E-02
2.880000000E+01 9.999974393E-01 1.620572776E-07 4.305006856E-02
2.890000000E+01 9.999974570E-01 1.609377142E-07 4.290110639E-02
2.900000000E+01 9.999974745E-01 1.598297126E-07 4.275317154E-02
2.910000000E+01 9.999974801E-01 1.496186911E-07 4.260625342E-02
2.920000000E+01 9.999974962E-01 1.477455803E-07 4.246034160E-02
2.930000000E+01 9.999975122E-01 1.459002749E-07 4.231542575E-02
2.940000000E+01 9.999975280E-01 1.440822798E-07 4.217149573E-02
2.950000000E+01 9.999975437E-01 1.422911107E-07 4.202854151E-02
2.960000000E+01 9.999975592E-01 1.405262929E-07 4.188655320E-02
2.970000000E+01 9.999975746E-01 1.387873621E-07 4.174552103E-02
2.980000000E+01 9.999975898E-01 1.370738631E-07 4.160543539E-02
2.990000000E+01 9.999976049E-01 1.353853506E-07 4.146628678E-02
3.000000000E+01 9.999976199E-01 1.337213881E-07 4.132806582E-02
3.010000000E+01 9.999976356E-01 1.327352987E-07 4.119076328E-02
3.020000000E+01 9.999976512E-01 1.318577123E-07 4.105437002E-02
3.030000000E+01 9.999976667E-01 1.309888006E-07 4.091887705E-02
3.040000000E+01 9.999976820E-01 1.301284496E-07 4.078427548E-02
3.050000000E+01 9.999976972E-01 1.292765471E-07 4.065055654E-02
3.060000000E+01 9.999977122E-01 1.284329830E-07 4.051771159E-02
3.070000000E+01 9.999977271E-01 1.275976487E-07 4.038573207E-02
3.080000000E+01 9.999977418E-01 1.267704376E-07 4.025460956E-02
3.090000000E+01 9.999977564E-01 1.259512447E-07 4.012433575E-02
3.100000000E+01 9.999977708E-01 1.251399666E-07 3.999490241E-02
3.110000000E+01 9.999977786E-01 1.171245670E-07 3.986630143E-02
3.120000000E+01 9.999977922E-01 1.157407542E-07 3.973852483E-02
3.130000000E+01 9.999978057E-01 1.143762333E-07 3.961156468E-02
3.140000000E+01 9.999978191E-01 1.130306821E-07 3.948541320E-02
3.150000000E+01 9.999978324E-01 1.117037850E-07 3.936006269E-02
3.160000000E+01 9.999978455E-01 1.103952324E-07 3.923550552E-02
3.170000000E+01 9.999978586E-01 1.091047208E-07 3.911173421E-02
3.180000000E+01 9.999978715E-01 1.078319524E-07 3.898874134E-02
3.190000000E+01 9.999978843E-01 1.065766354E-07 3.886651958E-02
3.200000000E+01 9.999978970E-01 1.053384836E-07 3.874506171E-02
3.210000000E+01 9.999979096E-01 1.041905505E-07 3.862436058E-02
3.220000000E+01 9.999979226E-01 1.035444091E-07 3.850440915E-02
3.230000000E+01 9.999979354E-01 1.029042598E-07 3.838520045E-02
3.240000000E+01 9.999979481E-01 1.022700286E-07 3.826672761E-02
3.250000000E+01 9.999979607E-01 1.016416428E-07 3.814898383E-02
3.260000000E+01 9.999979732E-01 1.010190308E-07 3.803196241E-02
3.270000000E+01 9.999979856E-01 1.004021221E-07 3.791565672E-02
