# 08/03/2022 
# Density retrieved from www.chemicool.com/densities.html 
# Includes the real (n) and complex (k) part of the  refractive index. 
# Element, Pr  (Z = 59) 
# Nominal density, g cm-3 =  6.77 
#    E [keV]      n       k    Wavelength [nm] 
2.000000000E+00 9.997376778E-01 9.234715856E-05 6.199209873E-01
2.100000000E+00 9.997586867E-01 7.651082085E-05 5.904009403E-01
2.200000000E+00 9.997782312E-01 6.456614335E-05 5.635645339E-01
2.300000000E+00 9.997960173E-01 5.557321050E-05 5.390617281E-01
2.400000000E+00 9.998119996E-01 4.873642321E-05 5.166008227E-01
2.500000000E+00 9.998258161E-01 4.194289641E-05 4.959367898E-01
2.600000000E+00 9.998386846E-01 3.790033508E-05 4.768622979E-01
2.700000000E+00 9.998498116E-01 3.234507170E-05 4.592007313E-01
2.800000000E+00 9.998602911E-01 2.981191099E-05 4.428007052E-01
2.900000000E+00 9.998694002E-01 2.542048696E-05 4.275317154E-01
3.000000000E+00 9.998779532E-01 2.369768320E-05 4.132806582E-01
3.100000000E+00 9.998853266E-01 2.015336492E-05 3.999490241E-01
3.200000000E+00 9.998923733E-01 1.886718264E-05 3.874506171E-01
3.300000000E+00 9.998988966E-01 1.611024229E-05 3.757096893E-01
3.400000000E+00 9.999047651E-01 1.503261469E-05 3.646594043E-01
3.500000000E+00 9.999103198E-01 1.306024882E-05 3.542405642E-01
3.600000000E+00 9.999152780E-01 1.207734565E-05 3.444005485E-01
3.700000000E+00 9.999199911E-01 1.071266653E-05 3.350924256E-01
3.800000000E+00 9.999242528E-01 9.765041502E-06 3.262742038E-01
3.900000000E+00 9.999280875E-01 9.270690289E-06 3.179081986E-01
4.000000000E+00 9.999319319E-01 8.085500741E-06 3.099604936E-01
4.100000000E+00 9.999352805E-01 7.525837225E-06 3.024004816E-01
4.200000000E+00 9.999385611E-01 6.780850716E-06 2.952004701E-01
4.300000000E+00 9.999415310E-01 6.227602041E-06 2.883353429E-01
4.400000000E+00 9.999442057E-01 5.869276554E-06 2.817822670E-01
4.500000000E+00 9.999469407E-01 5.290294191E-06 2.755204388E-01
4.600000000E+00 9.999493772E-01 4.887191528E-06 2.695308640E-01
4.700000000E+00 9.999515562E-01 4.627216340E-06 2.637961648E-01
4.800000000E+00 9.999538683E-01 4.200560242E-06 2.583004114E-01
4.900000000E+00 9.999559032E-01 3.902561217E-06 2.530289744E-01
5.000000000E+00 9.999577345E-01 3.684231731E-06 2.479683949E-01
5.100000000E+00 9.999593757E-01 3.541168522E-06 2.431062695E-01
5.200000000E+00 9.999614618E-01 3.163605606E-06 2.384311490E-01
5.300000000E+00 9.999630916E-01 2.960104865E-06 2.339324480E-01
5.400000000E+00 9.999644459E-01 2.851486477E-06 2.296003657E-01
5.500000000E+00 9.999664351E-01 2.591799726E-06 2.254258136E-01
5.600000000E+00 9.999679401E-01 2.429808573E-06 2.214003526E-01
5.700000000E+00 9.999692376E-01 2.304865431E-06 2.175161359E-01
5.800000000E+00 9.999712594E-01 2.142452638E-06 2.137658577E-01
5.900000000E+00 9.999736256E-01 2.014370102E-06 2.101427076E-01
6.000000000E+00 9.999751925E-01 5.828007667E-06 2.066403291E-01
6.100000000E+00 9.999743411E-01 5.461585225E-06 2.032527827E-01
6.200000000E+00 9.999747793E-01 5.085252854E-06 1.999745120E-01
6.300000000E+00 9.999752659E-01 4.763109844E-06 1.968003134E-01
6.400000000E+00 9.999764360E-01 4.479251448E-06 1.937253085E-01
6.500000000E+00 9.999770659E-01 5.892669974E-06 1.907449192E-01
6.600000000E+00 9.999769029E-01 5.566628888E-06 1.878548446E-01
6.700000000E+00 9.999771804E-01 5.220400002E-06 1.850510410E-01
6.800000000E+00 9.999778779E-01 4.938662745E-06 1.823297021E-01
6.900000000E+00 9.999781542E-01 5.420987964E-06 1.796872427E-01
7.000000000E+00 9.999784489E-01 5.185954550E-06 1.771202821E-01
7.100000000E+00 9.999790517E-01 5.040900078E-06 1.746256302E-01
7.200000000E+00 9.999791516E-01 4.673361621E-06 1.722002742E-01
7.300000000E+00 9.999795230E-01 4.452569607E-06 1.698413664E-01
7.400000000E+00 9.999798996E-01 4.250327840E-06 1.675462128E-01
7.500000000E+00 9.999804321E-01 4.137741378E-06 1.653122633E-01
7.600000000E+00 9.999809436E-01 4.029569815E-06 1.631371019E-01
7.700000000E+00 9.999811370E-01 3.692048630E-06 1.610184383E-01
7.800000000E+00 9.999815277E-01 3.527672178E-06 1.589540993E-01
7.900000000E+00 9.999819071E-01 3.372118103E-06 1.569420221E-01
8.000000000E+00 9.999823548E-01 3.286981363E-06 1.549802468E-01
8.100000000E+00 9.999827878E-01 3.206322317E-06 1.530669104E-01
8.200000000E+00 9.999830473E-01 2.954048293E-06 1.512002408E-01
8.300000000E+00 9.999834042E-01 2.828844446E-06 1.493785512E-01
8.400000000E+00 9.999837501E-01 2.709995646E-06 1.476002351E-01
8.500000000E+00 9.999841096E-01 2.623799267E-06 1.458637617E-01
8.600000000E+00 9.999844769E-01 2.563135439E-06 1.441676715E-01
8.700000000E+00 9.999848317E-01 2.504551421E-06 1.425105718E-01
8.800000000E+00 9.999850676E-01 2.293361227E-06 1.408911335E-01
8.900000000E+00 9.999853733E-01 2.201623242E-06 1.393080870E-01
9.000000000E+00 9.999856698E-01 2.114253510E-06 1.377602194E-01
9.100000000E+00 9.999859752E-01 2.056781924E-06 1.362463708E-01
9.200000000E+00 9.999862784E-01 2.012312277E-06 1.347654320E-01
9.300000000E+00 9.999865719E-01 1.969269408E-06 1.333163414E-01
9.400000000E+00 9.999867954E-01 1.802094077E-06 1.318980824E-01
9.500000000E+00 9.999870566E-01 1.732774711E-06 1.305096815E-01
9.600000000E+00 9.999873102E-01 1.666581816E-06 1.291502057E-01
9.700000000E+00 9.999875626E-01 1.616028854E-06 1.278187603E-01
9.800000000E+00 9.999878152E-01 1.583216939E-06 1.265144872E-01
9.900000000E+00 9.999880601E-01 1.551394295E-06 1.252365631E-01
1.000000000E+01 9.999882673E-01 1.434379232E-06 1.239841975E-01
1.010000000E+01 9.999884902E-01 1.382641104E-06 1.227566311E-01
1.020000000E+01 9.999887068E-01 1.333097558E-06 1.215531348E-01
1.030000000E+01 9.999889173E-01 1.285637742E-06 1.203730072E-01
1.040000000E+01 9.999891277E-01 1.256108846E-06 1.192155745E-01
1.050000000E+01 9.999893338E-01 1.232296896E-06 1.180801881E-01
1.060000000E+01 9.999895341E-01 1.209155685E-06 1.169662240E-01
1.070000000E+01 9.999897112E-01 1.117797006E-06 1.158730817E-01
1.080000000E+01 9.999898964E-01 1.080035849E-06 1.148001828E-01
1.090000000E+01 9.999900767E-01 1.043774959E-06 1.137469701E-01
1.100000000E+01 9.999902522E-01 1.008943323E-06 1.127129068E-01
1.110000000E+01 9.999904259E-01 9.861090861E-07 1.116974752E-01
1.120000000E+01 9.999905961E-01 9.685786073E-07 1.107001763E-01
1.130000000E+01 9.999907618E-01 9.515114770E-07 1.097205287E-01
1.140000000E+01 9.999909231E-01 9.348915089E-07 1.087580679E-01
1.150000000E+01 9.999910693E-01 8.581325361E-07 1.078123456E-01
1.160000000E+01 9.999912204E-01 8.313405135E-07 1.068829288E-01
1.170000000E+01 9.999913677E-01 8.055378194E-07 1.059693995E-01
1.180000000E+01 9.999915114E-01 7.810400703E-07 1.050713538E-01
1.190000000E+01 9.999916535E-01 7.679685007E-07 1.041884012E-01
1.200000000E+01 9.999917920E-01 7.552223568E-07 1.033201645E-01
1.210000000E+01 9.999919272E-01 7.427909254E-07 1.024662789E-01
1.220000000E+01 9.999920497E-01 6.903429690E-07 1.016263914E-01
1.230000000E+01 9.999921763E-01 6.697280996E-07 1.008001605E-01
1.240000000E+01 9.999922998E-01 6.498354889E-07 9.998725601E-02
1.250000000E+01 9.999924205E-01 6.306349870E-07 9.918735797E-02
1.260000000E+01 9.999925384E-01 6.120979150E-07 9.840015671E-02
1.270000000E+01 9.999926553E-01 6.018521416E-07 9.762535233E-02
1.280000000E+01 9.999927696E-01 5.924849360E-07 9.686265426E-02
1.290000000E+01 9.999928813E-01 5.833347270E-07 9.611178098E-02
1.300000000E+01 9.999929904E-01 5.743948634E-07 9.537245958E-02
1.310000000E+01 9.999930932E-01 5.297963737E-07 9.464442554E-02
1.320000000E+01 9.999931968E-01 5.149466473E-07 9.392742232E-02
1.330000000E+01 9.999932980E-01 5.005834565E-07 9.322120110E-02
1.340000000E+01 9.999933970E-01 4.866878207E-07 9.252552049E-02
1.350000000E+01 9.999934939E-01 4.747023126E-07 9.184014627E-02
1.360000000E+01 9.999935893E-01 4.677470613E-07 9.116485107E-02
1.370000000E+01 9.999936825E-01 4.609435583E-07 9.049941420E-02
1.380000000E+01 9.999937737E-01 4.542874211E-07 8.984362135E-02
1.390000000E+01 9.999938630E-01 4.477744240E-07 8.919726436E-02
1.400000000E+01 9.999939494E-01 4.129693133E-07 8.856014104E-02
1.410000000E+01 9.999940348E-01 4.020144709E-07 8.793205493E-02
1.420000000E+01 9.999941183E-01 3.913972393E-07 8.731281511E-02
1.430000000E+01 9.999942001E-01 3.811052466E-07 8.670223598E-02
1.440000000E+01 9.999942802E-01 3.711266507E-07 8.610013712E-02
1.450000000E+01 9.999943589E-01 3.657160564E-07 8.550634307E-02
1.460000000E+01 9.999944359E-01 3.607234043E-07 8.492068319E-02
1.470000000E+01 9.999945113E-01 3.558322961E-07 8.434299147E-02
1.480000000E+01 9.999945852E-01 3.510399966E-07 8.377310639E-02
1.490000000E+01 9.999946600E-01 3.266194655E-07 8.321087078E-02
1.500000000E+01 9.999947314E-01 3.184896561E-07 8.265613164E-02
1.510000000E+01 9.999948014E-01 3.105953713E-07 8.210874004E-02
1.520000000E+01 9.999948700E-01 3.029284913E-07 8.156855096E-02
1.530000000E+01 9.999949372E-01 2.954812236E-07 8.103542318E-02
1.540000000E+01 9.999950032E-01 2.882460877E-07 8.050921913E-02
1.550000000E+01 9.999950675E-01 2.844798030E-07 7.998980481E-02
1.560000000E+01 9.999951305E-01 2.808443157E-07 7.947704965E-02
1.570000000E+01 9.999951923E-01 2.772780749E-07 7.897082641E-02
1.580000000E+01 9.999952530E-01 2.737793330E-07 7.847101105E-02
1.590000000E+01 9.999953125E-01 2.703463972E-07 7.797748268E-02
1.600000000E+01 9.999953741E-01 2.498917421E-07 7.749012341E-02
1.610000000E+01 9.999954319E-01 2.440987923E-07 7.700881830E-02
1.620000000E+01 9.999954886E-01 2.384622960E-07 7.653345522E-02
1.630000000E+01 9.999955442E-01 2.329772218E-07 7.606392482E-02
1.640000000E+01 9.999955989E-01 2.276387279E-07 7.560012040E-02
1.650000000E+01 9.999956524E-01 2.233392323E-07 7.514193785E-02
1.660000000E+01 9.999957046E-01 2.206565031E-07 7.468927558E-02
1.670000000E+01 9.999957559E-01 2.180218222E-07 7.424203441E-02
1.680000000E+01 9.999958062E-01 2.154340490E-07 7.380011753E-02
1.690000000E+01 9.999958557E-01 2.128920766E-07 7.336343045E-02
1.700000000E+01 9.999959043E-01 2.103948304E-07 7.293188086E-02
1.710000000E+01 9.999959554E-01 1.947886656E-07 7.250537863E-02
1.720000000E+01 9.999960027E-01 1.905763104E-07 7.208383573E-02
1.730000000E+01 9.999960493E-01 1.864703812E-07 7.166716616E-02
1.740000000E+01 9.999960950E-01 1.824676730E-07 7.125528590E-02
1.750000000E+01 9.999961400E-01 1.785650935E-07 7.084811283E-02
1.760000000E+01 9.999961841E-01 1.747792849E-07 7.044556674E-02
1.770000000E+01 9.999962271E-01 1.728099565E-07 7.004756919E-02
1.780000000E+01 9.999962694E-01 1.708737258E-07 6.965404352E-02
1.790000000E+01 9.999963110E-01 1.689698551E-07 6.926491478E-02
1.800000000E+01 9.999963519E-01 1.670976274E-07 6.888010970E-02
1.810000000E+01 9.999963921E-01 1.652563453E-07 6.849955661E-02
1.820000000E+01 9.999964344E-01 1.543358162E-07 6.812318542E-02
1.830000000E+01 9.999964737E-01 1.512121837E-07 6.775092757E-02
1.840000000E+01 9.999965124E-01 1.481626534E-07 6.738271601E-02
1.850000000E+01 9.999965504E-01 1.451851272E-07 6.701848511E-02
1.860000000E+01 9.999965878E-01 1.422775771E-07 6.665817068E-02
1.870000000E+01 9.999966246E-01 1.394380416E-07 6.630170987E-02
1.880000000E+01 9.999966608E-01 1.366646238E-07 6.594904120E-02
1.890000000E+01 9.999966961E-01 1.350442248E-07 6.560010448E-02
1.900000000E+01 9.999967308E-01 1.336264475E-07 6.525484077E-02
1.910000000E+01 9.999967649E-01 1.322308806E-07 6.491319239E-02
1.920000000E+01 9.999967986E-01 1.308570626E-07 6.457510284E-02
1.930000000E+01 9.999968316E-01 1.295045439E-07 6.424051682E-02
1.940000000E+01 9.999968642E-01 1.281728864E-07 6.390938013E-02
1.950000000E+01 9.999968991E-01 1.193727995E-07 6.358163972E-02
1.960000000E+01 9.999969310E-01 1.171206045E-07 6.325724360E-02
1.970000000E+01 9.999969625E-01 1.149182950E-07 6.293614084E-02
1.980000000E+01 9.999969934E-01 1.127645514E-07 6.261828154E-02
1.990000000E+01 9.999970239E-01 1.106580950E-07 6.230361681E-02
2.000000000E+01 9.999970540E-01 1.085976868E-07 6.199209873E-02
2.010000000E+01 9.999970836E-01 1.065821257E-07 6.168368033E-02
2.020000000E+01 9.999971124E-01 1.054280832E-07 6.137831557E-02
2.030000000E+01 9.999971408E-01 1.043919413E-07 6.107595934E-02
2.040000000E+01 9.999971687E-01 1.033709993E-07 6.077656738E-02
2.050000000E+01 9.999971963E-01 1.023649615E-07 6.048009632E-02
2.060000000E+01 9.999972234E-01 1.013735391E-07 6.018650362E-02
2.070000000E+01 9.999972502E-01 1.003964505E-07 5.989574756E-02
2.080000000E+01 9.999972790E-01 9.395655996E-08 5.960778724E-02
2.090000000E+01 9.999973053E-01 9.230203728E-08 5.932258252E-02
2.100000000E+01 9.999973312E-01 9.068183960E-08 5.904009403E-02
2.110000000E+01 9.999973567E-01 8.909511549E-08 5.876028316E-02
2.120000000E+01 9.999973819E-01 8.754103830E-08 5.848311201E-02
2.130000000E+01 9.999974068E-01 8.601880531E-08 5.820854341E-02
2.140000000E+01 9.999974312E-01 8.452763697E-08 5.793654087E-02
2.150000000E+01 9.999974554E-01 8.307413403E-08 5.766706859E-02
2.160000000E+01 9.999974789E-01 8.230670965E-08 5.740009142E-02
2.170000000E+01 9.999975021E-01 8.154987036E-08 5.713557487E-02
2.180000000E+01 9.999975249E-01 8.080342239E-08 5.687348507E-02
2.190000000E+01 9.999975475E-01 8.006717636E-08 5.661378879E-02
2.200000000E+01 9.999975697E-01 7.934094722E-08 5.635645339E-02
2.210000000E+01 9.999975917E-01 7.862455408E-08 5.610144681E-02
2.220000000E+01 9.999976133E-01 7.791782010E-08 5.584873759E-02
2.230000000E+01 9.999976370E-01 7.263883291E-08 5.559829482E-02
2.240000000E+01 9.999976583E-01 7.144768114E-08 5.535008815E-02
2.250000000E+01 9.999976793E-01 7.027958167E-08 5.510408776E-02
2.260000000E+01 9.999977001E-01 6.913400071E-08 5.486026436E-02
2.270000000E+01 9.999977206E-01 6.801041897E-08 5.461858919E-02
2.280000000E+01 9.999977408E-01 6.690833123E-08 5.437903397E-02
2.290000000E+01 9.999977607E-01 6.582724585E-08 5.414157094E-02
2.300000000E+01 9.999977804E-01 6.485780155E-08 5.390617281E-02
2.310000000E+01 9.999977995E-01 6.429747760E-08 5.367281275E-02
2.320000000E+01 9.999978185E-01 6.374438359E-08 5.344146442E-02
2.330000000E+01 9.999978371E-01 6.319839566E-08 5.321210191E-02
2.340000000E+01 9.999978556E-01 6.265939262E-08 5.298469977E-02
2.350000000E+01 9.999978738E-01 6.212725581E-08 5.275923296E-02
2.360000000E+01 9.999978918E-01 6.160186911E-08 5.253567689E-02
2.370000000E+01 9.999979095E-01 6.108311884E-08 5.231400737E-02
2.380000000E+01 9.999979291E-01 5.716653734E-08 5.209420061E-02
2.390000000E+01 9.999979466E-01 5.629264759E-08 5.187623325E-02
2.400000000E+01 9.999979639E-01 5.543458415E-08 5.166008227E-02
2.410000000E+01 9.999979810E-01 5.459200363E-08 5.144572509E-02
2.420000000E+01 9.999979978E-01 5.376457142E-08 5.123313945E-02
2.430000000E+01 9.999980145E-01 5.295196138E-08 5.102230348E-02
2.440000000E+01 9.999980310E-01 5.215385562E-08 5.081319568E-02
2.450000000E+01 9.999980472E-01 5.136994425E-08 5.060579488E-02
2.460000000E+01 9.999980632E-01 5.070281146E-08 5.040008027E-02
2.470000000E+01 9.999980789E-01 5.029309345E-08 5.019603136E-02
2.480000000E+01 9.999980943E-01 4.988832170E-08 4.999362801E-02
2.490000000E+01 9.999981096E-01 4.948841693E-08 4.979285038E-02
2.500000000E+01 9.999981247E-01 4.909330141E-08 4.959367898E-02
2.510000000E+01 9.999981396E-01 4.870289897E-08 4.939609460E-02
2.520000000E+01 9.999981543E-01 4.831713495E-08 4.920007836E-02
2.530000000E+01 9.999981689E-01 4.793593617E-08 4.900561164E-02
2.540000000E+01 9.999981850E-01 4.502040653E-08 4.881267616E-02
2.550000000E+01 9.999981994E-01 4.437529061E-08 4.862125391E-02
2.560000000E+01 9.999982136E-01 4.374112997E-08 4.843132713E-02
2.570000000E+01 9.999982277E-01 4.311770166E-08 4.824287839E-02
2.580000000E+01 9.999982416E-01 4.250478807E-08 4.805589049E-02
2.590000000E+01 9.999982553E-01 4.190217677E-08 4.787034651E-02
2.600000000E+01 9.999982689E-01 4.130966036E-08 4.768622979E-02
2.610000000E+01 9.999982823E-01 4.072703635E-08 4.750352393E-02
2.620000000E+01 9.999982956E-01 4.015410702E-08 4.732221277E-02
2.630000000E+01 9.999983086E-01 3.968802661E-08 4.714228040E-02
2.640000000E+01 9.999983214E-01 3.938792919E-08 4.696371116E-02
2.650000000E+01 9.999983341E-01 3.909122268E-08 4.678648961E-02
2.660000000E+01 9.999983466E-01 3.879785619E-08 4.661060055E-02
2.670000000E+01 9.999983589E-01 3.850777978E-08 4.643602901E-02
2.680000000E+01 9.999983712E-01 3.822094443E-08 4.626276025E-02
2.690000000E+01 9.999983833E-01 3.793730204E-08 4.609077972E-02
2.700000000E+01 9.999983952E-01 3.765680539E-08 4.592007313E-02
2.710000000E+01 9.999984070E-01 3.737940813E-08 4.575062637E-02
2.720000000E+01 9.999984204E-01 3.485626056E-08 4.558242554E-02
2.730000000E+01 9.999984321E-01 3.437235912E-08 4.541545694E-02
2.740000000E+01 9.999984437E-01 3.389623991E-08 4.524970710E-02
2.750000000E+01 9.999984551E-01 3.342775389E-08 4.508516271E-02
2.760000000E+01 9.999984665E-01 3.296675533E-08 4.492181067E-02
2.770000000E+01 9.999984777E-01 3.251310177E-08 4.475963807E-02
2.780000000E+01 9.999984888E-01 3.206665392E-08 4.459863218E-02
2.790000000E+01 9.999984997E-01 3.162727559E-08 4.443878045E-02
2.800000000E+01 9.999985106E-01 3.119483362E-08 4.428007052E-02
2.810000000E+01 9.999985213E-01 3.081775798E-08 4.412249020E-02
2.820000000E+01 9.999985317E-01 3.059957985E-08 4.396602747E-02
2.830000000E+01 9.999985421E-01 3.038371047E-08 4.381067048E-02
2.840000000E+01 9.999985524E-01 3.017011738E-08 4.365640756E-02
2.850000000E+01 9.999985625E-01 2.995876870E-08 4.350322718E-02
2.860000000E+01 9.999985725E-01 2.974963308E-08 4.335111799E-02
2.870000000E+01 9.999985825E-01 2.954267974E-08 4.320006880E-02
2.880000000E+01 9.999985923E-01 2.933787842E-08 4.305006856E-02
2.890000000E+01 9.999986020E-01 2.913519938E-08 4.290110639E-02
2.900000000E+01 9.999986116E-01 2.893461341E-08 4.275317154E-02
2.910000000E+01 9.999986229E-01 2.690351251E-08 4.260625342E-02
2.920000000E+01 9.999986325E-01 2.654863722E-08 4.246034160E-02
2.930000000E+01 9.999986420E-01 2.619913036E-08 4.231542575E-02
2.940000000E+01 9.999986513E-01 2.585489544E-08 4.217149573E-02
2.950000000E+01 9.999986606E-01 2.551583800E-08 4.202854151E-02
2.960000000E+01 9.999986698E-01 2.518186558E-08 4.188655320E-02
2.970000000E+01 9.999986789E-01 2.485288763E-08 4.174552103E-02
2.980000000E+01 9.999986879E-01 2.452881551E-08 4.160543539E-02
2.990000000E+01 9.999986968E-01 2.420956240E-08 4.146628678E-02
3.000000000E+01 9.999987056E-01 2.389504329E-08 4.132806582E-02
3.010000000E+01 9.999987142E-01 2.371662039E-08 4.119076328E-02
3.020000000E+01 9.999987227E-01 2.355981672E-08 4.105437002E-02
3.030000000E+01 9.999987312E-01 2.340456299E-08 4.091887705E-02
3.040000000E+01 9.999987395E-01 2.325083886E-08 4.078427548E-02
3.050000000E+01 9.999987477E-01 2.309862428E-08 4.065055654E-02
3.060000000E+01 9.999987559E-01 2.294789957E-08 4.051771159E-02
3.070000000E+01 9.999987640E-01 2.279864533E-08 4.038573207E-02
3.080000000E+01 9.999987720E-01 2.265084251E-08 4.025460956E-02
3.090000000E+01 9.999987799E-01 2.250447234E-08 4.012433575E-02
3.100000000E+01 9.999987878E-01 2.235951638E-08 3.999490241E-02
3.110000000E+01 9.999987974E-01 2.078387869E-08 3.986630143E-02
3.120000000E+01 9.999988053E-01 2.052492530E-08 3.973852483E-02
3.130000000E+01 9.999988130E-01 2.026965122E-08 3.961156468E-02
3.140000000E+01 9.999988207E-01 2.001799441E-08 3.948541320E-02
3.150000000E+01 9.999988284E-01 1.976989407E-08 3.936006269E-02
3.160000000E+01 9.999988359E-01 1.952529061E-08 3.923550552E-02
3.170000000E+01 9.999988434E-01 1.928412558E-08 3.911173421E-02
3.180000000E+01 9.999988508E-01 1.904634168E-08 3.898874134E-02
3.190000000E+01 9.999988582E-01 1.881188274E-08 3.886651958E-02
3.200000000E+01 9.999988654E-01 1.858069367E-08 3.874506171E-02
3.210000000E+01 9.999988726E-01 1.836728248E-08 3.862436058E-02
3.220000000E+01 9.999988796E-01 1.825337712E-08 3.850440915E-02
3.230000000E+01 9.999988865E-01 1.814052808E-08 3.838520045E-02
3.240000000E+01 9.999988934E-01 1.802872231E-08 3.826672761E-02
3.250000000E+01 9.999989002E-01 1.791794702E-08 3.814898383E-02
3.260000000E+01 9.999989069E-01 1.780818956E-08 3.803196241E-02
3.270000000E+01 9.999989136E-01 1.769943751E-08 3.791565672E-02
