# 08/03/2022 
# Density retrieved from www.chemicool.com/densities.html 
# Includes the real (n) and complex (k) part of the  refractive index. 
# Element, Rb  (Z = 37) 
# Nominal density, g cm-3 =  1.53 
#    E [keV]      n       k    Wavelength [nm] 
2.000000000E+00 9.999497890E-01 2.483349463E-05 6.199209873E-01
2.100000000E+00 9.999513884E-01 2.397535579E-05 5.904009403E-01
2.200000000E+00 9.999524715E-01 2.042846044E-05 5.635645339E-01
2.300000000E+00 9.999546465E-01 1.756159188E-05 5.390617281E-01
2.400000000E+00 9.999572622E-01 1.539238675E-05 5.166008227E-01
2.500000000E+00 9.999595412E-01 1.318259475E-05 4.959367898E-01
2.600000000E+00 9.999622769E-01 1.189171232E-05 4.768622979E-01
2.700000000E+00 9.999642292E-01 1.007847054E-05 4.592007313E-01
2.800000000E+00 9.999666641E-01 9.281963053E-06 4.428007052E-01
2.900000000E+00 9.999683762E-01 7.844470256E-06 4.275317154E-01
3.000000000E+00 9.999704363E-01 7.311008220E-06 4.132806582E-01
3.100000000E+00 9.999719376E-01 6.183546069E-06 3.999490241E-01
3.200000000E+00 9.999736556E-01 5.788064520E-06 3.874506171E-01
3.300000000E+00 9.999750292E-01 4.934309449E-06 3.757096893E-01
3.400000000E+00 9.999764590E-01 4.603473692E-06 3.646594043E-01
3.500000000E+00 9.999776754E-01 3.992217344E-06 3.542405642E-01
3.600000000E+00 9.999788724E-01 3.689894649E-06 3.444005485E-01
3.700000000E+00 9.999798935E-01 3.259659343E-06 3.350924256E-01
3.800000000E+00 9.999808805E-01 2.963611945E-06 3.262742038E-01
3.900000000E+00 9.999818484E-01 2.813580309E-06 3.179081986E-01
4.000000000E+00 9.999827133E-01 2.443930432E-06 3.099604936E-01
4.100000000E+00 9.999835389E-01 2.272229624E-06 3.024004816E-01
4.200000000E+00 9.999842960E-01 2.039007042E-06 2.952004701E-01
4.300000000E+00 9.999850071E-01 1.867224780E-06 2.883353429E-01
4.400000000E+00 9.999856773E-01 1.757958712E-06 2.817822670E-01
4.500000000E+00 9.999863083E-01 1.575842021E-06 2.755204388E-01
4.600000000E+00 9.999868979E-01 1.450720422E-06 2.695308640E-01
4.700000000E+00 9.999874498E-01 1.371934308E-06 2.637961648E-01
4.800000000E+00 9.999879736E-01 1.237888846E-06 2.583004114E-01
4.900000000E+00 9.999884629E-01 1.145735064E-06 2.530289744E-01
5.000000000E+00 9.999889215E-01 1.079410728E-06 2.479683949E-01
5.100000000E+00 9.999893517E-01 1.037495894E-06 2.431062695E-01
5.200000000E+00 9.999897687E-01 9.184317007E-07 2.384311490E-01
5.300000000E+00 9.999901552E-01 8.561588363E-07 2.339324480E-01
5.400000000E+00 9.999905164E-01 8.247428570E-07 2.296003657E-01
5.500000000E+00 9.999908681E-01 7.457104516E-07 2.254258136E-01
5.600000000E+00 9.999911957E-01 6.972402573E-07 2.214003526E-01
5.700000000E+00 9.999915045E-01 6.602846732E-07 2.175161359E-01
5.800000000E+00 9.999917949E-01 6.377125158E-07 2.137658577E-01
5.900000000E+00 9.999920813E-01 5.747807797E-07 2.101427076E-01
6.000000000E+00 9.999923471E-01 5.399143974E-07 2.066403291E-01
6.100000000E+00 9.999925979E-01 5.147296200E-07 2.032527827E-01
6.200000000E+00 9.999928348E-01 4.982593434E-07 1.999745120E-01
6.300000000E+00 9.999930702E-01 4.509338747E-07 1.968003134E-01
6.400000000E+00 9.999932886E-01 4.253152417E-07 1.937253085E-01
6.500000000E+00 9.999934958E-01 4.048987316E-07 1.907449192E-01
6.600000000E+00 9.999936915E-01 3.927220250E-07 1.878548446E-01
6.700000000E+00 9.999938863E-01 3.594156842E-07 1.850510410E-01
6.800000000E+00 9.999940679E-01 3.403117256E-07 1.823297021E-01
6.900000000E+00 9.999942415E-01 3.223986362E-07 1.796872427E-01
7.000000000E+00 9.999944053E-01 3.120967765E-07 1.771202821E-01
7.100000000E+00 9.999945618E-01 3.033672297E-07 1.746256302E-01
7.200000000E+00 9.999947198E-01 2.760011874E-07 1.722002742E-01
7.300000000E+00 9.999948661E-01 2.623510035E-07 1.698413664E-01
7.400000000E+00 9.999950061E-01 2.498839431E-07 1.675462128E-01
7.500000000E+00 9.999951384E-01 2.432647951E-07 1.653122633E-01
7.600000000E+00 9.999952655E-01 2.369052064E-07 1.631371019E-01
7.700000000E+00 9.999953948E-01 2.158163458E-07 1.610184383E-01
7.800000000E+00 9.999955143E-01 2.058091233E-07 1.589540993E-01
7.900000000E+00 9.999956291E-01 1.963475066E-07 1.569420221E-01
8.000000000E+00 9.999957378E-01 1.913822452E-07 1.549802468E-01
8.100000000E+00 9.999958424E-01 1.866859273E-07 1.530669104E-01
8.200000000E+00 9.999959490E-01 1.710757955E-07 1.512002408E-01
8.300000000E+00 9.999960479E-01 1.635204503E-07 1.493785512E-01
8.400000000E+00 9.999961431E-01 1.563546326E-07 1.476002351E-01
8.500000000E+00 9.999962341E-01 1.512490020E-07 1.458637617E-01
8.600000000E+00 9.999963212E-01 1.477520334E-07 1.441676715E-01
8.700000000E+00 9.999964053E-01 1.443749557E-07 1.425105718E-01
8.800000000E+00 9.999964921E-01 1.314357531E-07 1.408911335E-01
8.900000000E+00 9.999965719E-01 1.259642038E-07 1.393080870E-01
9.000000000E+00 9.999966491E-01 1.207571085E-07 1.377602194E-01
9.100000000E+00 9.999967228E-01 1.174128884E-07 1.362463708E-01
9.200000000E+00 9.999967936E-01 1.148743063E-07 1.347654320E-01
9.300000000E+00 9.999968622E-01 1.124171730E-07 1.333163414E-01
9.400000000E+00 9.999969344E-01 1.019154078E-07 1.318980824E-01
9.500000000E+00 9.999970001E-01 9.773715351E-08 1.305096815E-01
9.600000000E+00 9.999970636E-01 9.375166932E-08 1.291502057E-01
9.700000000E+00 9.999971246E-01 9.076925438E-08 1.278187603E-01
9.800000000E+00 9.999971830E-01 8.892627181E-08 1.265144872E-01
9.900000000E+00 9.999972396E-01 8.713885465E-08 1.252365631E-01
1.000000000E+01 9.999972998E-01 7.991639555E-08 1.239841975E-01
1.010000000E+01 9.999973544E-01 7.684604921E-08 1.227566311E-01
1.020000000E+01 9.999974074E-01 7.390891054E-08 1.215531348E-01
1.030000000E+01 9.999974588E-01 7.109817267E-08 1.203730072E-01
1.040000000E+01 9.999975078E-01 6.942375278E-08 1.192155745E-01
1.050000000E+01 9.999975550E-01 6.810769252E-08 1.180801881E-01
1.060000000E+01 9.999976009E-01 6.682870328E-08 1.169662240E-01
1.070000000E+01 9.999976510E-01 6.126916315E-08 1.158730817E-01
1.080000000E+01 9.999976957E-01 5.906442462E-08 1.148001828E-01
1.090000000E+01 9.999977391E-01 5.694928029E-08 1.137469701E-01
1.100000000E+01 9.999977813E-01 5.491943993E-08 1.127129068E-01
1.110000000E+01 9.999978214E-01 5.363745213E-08 1.116974752E-01
1.120000000E+01 9.999978602E-01 5.268391643E-08 1.107001763E-01
1.130000000E+01 9.999978979E-01 5.175558366E-08 1.097205287E-01
1.140000000E+01 9.999979346E-01 5.085157339E-08 1.087580679E-01
1.150000000E+01 9.999979768E-01 4.623262904E-08 1.078123456E-01
1.160000000E+01 9.999980129E-01 4.469458387E-08 1.068829288E-01
1.170000000E+01 9.999980479E-01 4.321464966E-08 1.059693995E-01
1.180000000E+01 9.999980820E-01 4.181240580E-08 1.050713538E-01
1.190000000E+01 9.999981141E-01 4.111262894E-08 1.041884012E-01
1.200000000E+01 9.999981454E-01 4.043027350E-08 1.033201645E-01
1.210000000E+01 9.999981760E-01 3.976476596E-08 1.024662789E-01
1.220000000E+01 9.999982118E-01 3.674005027E-08 1.016263914E-01
1.230000000E+01 9.999982422E-01 3.558919312E-08 1.008001605E-01
1.240000000E+01 9.999982718E-01 3.447935369E-08 9.998725601E-02
1.250000000E+01 9.999983007E-01 3.340880459E-08 9.918735797E-02
1.260000000E+01 9.999983288E-01 3.237590317E-08 9.840015671E-02
1.270000000E+01 9.999983551E-01 3.183008977E-08 9.762535233E-02
1.280000000E+01 9.999983807E-01 3.133468738E-08 9.686265426E-02
1.290000000E+01 9.999984057E-01 3.085076125E-08 9.611178098E-02
1.300000000E+01 9.999984302E-01 3.037795964E-08 9.537245958E-02
1.310000000E+01 9.999984628E-01 2.786984095E-08 9.464442554E-02
1.320000000E+01 9.999984877E-01 2.705818395E-08 9.392742232E-02
1.330000000E+01 9.999985120E-01 2.627348624E-08 9.322120110E-02
1.340000000E+01 9.999985357E-01 2.551468867E-08 9.252552049E-02
1.350000000E+01 9.999985584E-01 2.486411867E-08 9.184014627E-02
1.360000000E+01 9.999985796E-01 2.449981416E-08 9.116485107E-02
1.370000000E+01 9.999986002E-01 2.414345797E-08 9.049941420E-02
1.380000000E+01 9.999986204E-01 2.379482056E-08 8.984362135E-02
1.390000000E+01 9.999986402E-01 2.345368059E-08 8.919726436E-02
1.400000000E+01 9.999986744E-01 2.156004104E-08 8.856014104E-02
1.410000000E+01 9.999986958E-01 2.097453282E-08 8.793205493E-02
1.420000000E+01 9.999987167E-01 2.040722034E-08 8.731281511E-02
1.430000000E+01 9.999987371E-01 1.985743395E-08 8.670223598E-02
1.440000000E+01 9.999987570E-01 1.932453275E-08 8.610013712E-02
1.450000000E+01 9.999987742E-01 1.904194018E-08 8.550634307E-02
1.460000000E+01 9.999987910E-01 1.878198500E-08 8.492068319E-02
1.470000000E+01 9.999988258E-01 1.785600124E-08 8.434299147E-02
1.480000000E+01 9.999988477E-01 1.739570636E-08 8.377310639E-02
1.490000000E+01 9.999988688E-01 1.695630910E-08 8.321087078E-02
1.500000000E+01 9.999988838E-01 1.673097859E-08 8.265613164E-02
1.510000000E+01 9.999989384E-01 1.610192952E-08 8.210874004E-02
1.520000000E+01 9.999990097E-01 1.572805572E-08 8.156855096E-02
1.530000000E+01 9.999989693E-01 1.182522816E-07 8.103542318E-02
1.540000000E+01 9.999989498E-01 1.148612782E-07 8.050921913E-02
1.550000000E+01 9.999989493E-01 1.119166229E-07 7.998980481E-02
1.560000000E+01 9.999989622E-01 1.104311580E-07 7.947704965E-02
1.570000000E+01 9.999989754E-01 1.090288718E-07 7.897082641E-02
1.580000000E+01 9.999989883E-01 1.076531270E-07 7.847101105E-02
1.590000000E+01 9.999990010E-01 1.063032579E-07 7.797748268E-02
1.600000000E+01 9.999989891E-01 9.906744805E-08 7.749012341E-02
1.610000000E+01 9.999989970E-01 9.670756030E-08 7.700881830E-02
1.620000000E+01 9.999990048E-01 9.441202804E-08 7.653345522E-02
1.630000000E+01 9.999990125E-01 9.217877135E-08 7.606392482E-02
1.640000000E+01 9.999990202E-01 9.000578885E-08 7.560012040E-02
1.650000000E+01 9.999990294E-01 8.826784540E-08 7.514193785E-02
1.660000000E+01 9.999990410E-01 8.720758060E-08 7.468927558E-02
1.670000000E+01 9.999990525E-01 8.616630539E-08 7.424203441E-02
1.680000000E+01 9.999990637E-01 8.514356898E-08 7.380011753E-02
1.690000000E+01 9.999990748E-01 8.413893390E-08 7.336343045E-02
1.700000000E+01 9.999990856E-01 8.315197547E-08 7.293188086E-02
1.710000000E+01 9.999990866E-01 7.726117581E-08 7.250537863E-02
1.720000000E+01 9.999990957E-01 7.563432054E-08 7.208383573E-02
1.730000000E+01 9.999991047E-01 7.404816312E-08 7.166716616E-02
1.740000000E+01 9.999991136E-01 7.250148423E-08 7.125528590E-02
1.750000000E+01 9.999991223E-01 7.099310738E-08 7.084811283E-02
1.760000000E+01 9.999991310E-01 6.952924032E-08 7.044556674E-02
1.770000000E+01 9.999991408E-01 6.874581851E-08 7.004756919E-02
1.780000000E+01 9.999991504E-01 6.797556332E-08 6.965404352E-02
1.790000000E+01 9.999991599E-01 6.721818134E-08 6.926491478E-02
1.800000000E+01 9.999991692E-01 6.647338729E-08 6.888010970E-02
1.810000000E+01 9.999991783E-01 6.574090376E-08 6.849955661E-02
1.820000000E+01 9.999991829E-01 6.171467084E-08 6.812318542E-02
1.830000000E+01 9.999991911E-01 6.051892046E-08 6.775092757E-02
1.840000000E+01 9.999991992E-01 5.935107271E-08 6.738271601E-02
1.850000000E+01 9.999992071E-01 5.821034448E-08 6.701848511E-02
1.860000000E+01 9.999992150E-01 5.709597851E-08 6.665817068E-02
1.870000000E+01 9.999992227E-01 5.600724239E-08 6.630170987E-02
1.880000000E+01 9.999992303E-01 5.494342760E-08 6.594904120E-02
1.890000000E+01 9.999992384E-01 5.429894469E-08 6.560010448E-02
1.900000000E+01 9.999992464E-01 5.372888097E-08 6.525484077E-02
1.910000000E+01 9.999992542E-01 5.316774768E-08 6.491319239E-02
1.920000000E+01 9.999992620E-01 5.261535924E-08 6.457510284E-02
1.930000000E+01 9.999992696E-01 5.207153489E-08 6.424051682E-02
1.940000000E+01 9.999992771E-01 5.153609850E-08 6.390938013E-02
1.950000000E+01 9.999992817E-01 4.822284327E-08 6.358163972E-02
1.960000000E+01 9.999992886E-01 4.734616105E-08 6.325724360E-02
1.970000000E+01 9.999992954E-01 4.648862693E-08 6.293614084E-02
1.980000000E+01 9.999993022E-01 4.564973814E-08 6.261828154E-02
1.990000000E+01 9.999993088E-01 4.482900744E-08 6.230361681E-02
2.000000000E+01 9.999993153E-01 4.402596253E-08 6.199209873E-02
2.010000000E+01 9.999993218E-01 4.324014556E-08 6.168368033E-02
2.020000000E+01 9.999993284E-01 4.277536703E-08 6.137831557E-02
2.030000000E+01 9.999993350E-01 4.235497285E-08 6.107595934E-02
2.040000000E+01 9.999993415E-01 4.194074578E-08 6.077656738E-02
2.050000000E+01 9.999993479E-01 4.153256577E-08 6.048009632E-02
2.060000000E+01 9.999993542E-01 4.113031568E-08 6.018650362E-02
2.070000000E+01 9.999993605E-01 4.073388122E-08 5.989574756E-02
2.080000000E+01 9.999993650E-01 3.815970879E-08 5.960778724E-02
2.090000000E+01 9.999993708E-01 3.749340065E-08 5.932258252E-02
2.100000000E+01 9.999993766E-01 3.684087229E-08 5.904009403E-02
2.110000000E+01 9.999993823E-01 3.620178248E-08 5.876028316E-02
2.120000000E+01 9.999993879E-01 3.557579990E-08 5.848311201E-02
2.130000000E+01 9.999993934E-01 3.496260281E-08 5.820854341E-02
2.140000000E+01 9.999993989E-01 3.436187874E-08 5.793654087E-02
2.150000000E+01 9.999994043E-01 3.377625754E-08 5.766706859E-02
2.160000000E+01 9.999994098E-01 3.346423836E-08 5.740009142E-02
2.170000000E+01 9.999994152E-01 3.315652286E-08 5.713557487E-02
2.180000000E+01 9.999994205E-01 3.285303225E-08 5.687348507E-02
2.190000000E+01 9.999994258E-01 3.255368956E-08 5.661378879E-02
2.200000000E+01 9.999994310E-01 3.225841952E-08 5.635645339E-02
2.210000000E+01 9.999994362E-01 3.196714860E-08 5.610144681E-02
2.220000000E+01 9.999994412E-01 3.167980490E-08 5.584873759E-02
2.230000000E+01 9.999994452E-01 2.953021646E-08 5.559829482E-02
2.240000000E+01 9.999994500E-01 2.904556033E-08 5.535008815E-02
2.250000000E+01 9.999994548E-01 2.857028669E-08 5.510408776E-02
2.260000000E+01 9.999994595E-01 2.810417825E-08 5.486026436E-02
2.270000000E+01 9.999994641E-01 2.764702361E-08 5.461858919E-02
2.280000000E+01 9.999994687E-01 2.719861710E-08 5.437903397E-02
2.290000000E+01 9.999994732E-01 2.675875861E-08 5.414157094E-02
2.300000000E+01 9.999994777E-01 2.636436457E-08 5.390617281E-02
2.310000000E+01 9.999994822E-01 2.613659575E-08 5.367281275E-02
2.320000000E+01 9.999994867E-01 2.591176587E-08 5.344146442E-02
2.330000000E+01 9.999994910E-01 2.568982457E-08 5.321210191E-02
2.340000000E+01 9.999994954E-01 2.547072259E-08 5.298469977E-02
2.350000000E+01 9.999994997E-01 2.525441170E-08 5.275923296E-02
2.360000000E+01 9.999995039E-01 2.504084469E-08 5.253567689E-02
2.370000000E+01 9.999995081E-01 2.482997536E-08 5.231400737E-02
2.380000000E+01 9.999995116E-01 2.321517137E-08 5.209420061E-02
2.390000000E+01 9.999995156E-01 2.285748168E-08 5.187623325E-02
2.400000000E+01 9.999995196E-01 2.250628886E-08 5.166008227E-02
2.410000000E+01 9.999995235E-01 2.216145173E-08 5.144572509E-02
2.420000000E+01 9.999995274E-01 2.182283271E-08 5.123313945E-02
2.430000000E+01 9.999995312E-01 2.149029772E-08 5.102230348E-02
2.440000000E+01 9.999995349E-01 2.116371608E-08 5.081319568E-02
2.450000000E+01 9.999995387E-01 2.084296039E-08 5.060579488E-02
2.460000000E+01 9.999995424E-01 2.057041626E-08 5.040008027E-02
2.470000000E+01 9.999995461E-01 2.040419136E-08 5.019603136E-02
2.480000000E+01 9.999995497E-01 2.023997318E-08 4.999362801E-02
2.490000000E+01 9.999995533E-01 2.007772956E-08 4.979285038E-02
2.500000000E+01 9.999995569E-01 1.991742897E-08 4.959367898E-02
2.510000000E+01 9.999995604E-01 1.975904050E-08 4.939609460E-02
2.520000000E+01 9.999995639E-01 1.960253387E-08 4.920007836E-02
2.530000000E+01 9.999995673E-01 1.944787937E-08 4.900561164E-02
2.540000000E+01 9.999995704E-01 1.824282588E-08 4.881267616E-02
2.550000000E+01 9.999995737E-01 1.797871229E-08 4.862125391E-02
2.560000000E+01 9.999995770E-01 1.771910105E-08 4.843132713E-02
2.570000000E+01 9.999995803E-01 1.746390036E-08 4.824287839E-02
2.580000000E+01 9.999995835E-01 1.721302061E-08 4.805589049E-02
2.590000000E+01 9.999995866E-01 1.696637432E-08 4.787034651E-02
2.600000000E+01 9.999995898E-01 1.672387610E-08 4.768622979E-02
2.610000000E+01 9.999995929E-01 1.648544257E-08 4.750352393E-02
2.620000000E+01 9.999995959E-01 1.625099232E-08 4.732221277E-02
2.630000000E+01 9.999995990E-01 1.606079169E-08 4.714228040E-02
2.640000000E+01 9.999996020E-01 1.593934947E-08 4.696371116E-02
2.650000000E+01 9.999996050E-01 1.581927947E-08 4.678648961E-02
2.660000000E+01 9.999996080E-01 1.570056109E-08 4.661060055E-02
2.670000000E+01 9.999996109E-01 1.558317413E-08 4.643602901E-02
2.680000000E+01 9.999996138E-01 1.546709875E-08 4.626276025E-02
2.690000000E+01 9.999996167E-01 1.535231548E-08 4.609077972E-02
2.700000000E+01 9.999996195E-01 1.523880522E-08 4.592007313E-02
2.710000000E+01 9.999996223E-01 1.512654921E-08 4.575062637E-02
2.720000000E+01 9.999996249E-01 1.413046498E-08 4.558242554E-02
2.730000000E+01 9.999996276E-01 1.393700225E-08 4.541545694E-02
2.740000000E+01 9.999996303E-01 1.374663531E-08 4.524970710E-02
2.750000000E+01 9.999996330E-01 1.355930502E-08 4.508516271E-02
2.760000000E+01 9.999996356E-01 1.337495356E-08 4.492181067E-02
2.770000000E+01 9.999996382E-01 1.319352441E-08 4.475963807E-02
2.780000000E+01 9.999996408E-01 1.301496228E-08 4.459863218E-02
2.790000000E+01 9.999996433E-01 1.283921314E-08 4.443878045E-02
2.800000000E+01 9.999996458E-01 1.266622413E-08 4.428007052E-02
2.810000000E+01 9.999996484E-01 1.251505546E-08 4.412249020E-02
2.820000000E+01 9.999996508E-01 1.242645357E-08 4.396602747E-02
2.830000000E+01 9.999996533E-01 1.233878927E-08 4.381067048E-02
2.840000000E+01 9.999996557E-01 1.225204937E-08 4.365640756E-02
2.850000000E+01 9.999996582E-01 1.216622092E-08 4.350322718E-02
2.860000000E+01 9.999996605E-01 1.208129119E-08 4.335111799E-02
2.870000000E+01 9.999996629E-01 1.199724768E-08 4.320006880E-02
2.880000000E+01 9.999996652E-01 1.191407810E-08 4.305006856E-02
2.890000000E+01 9.999996676E-01 1.183177038E-08 4.290110639E-02
2.900000000E+01 9.999996698E-01 1.175031265E-08 4.275317154E-02
2.910000000E+01 9.999996720E-01 1.096104810E-08 4.260625342E-02
2.920000000E+01 9.999996742E-01 1.082000739E-08 4.246034160E-02
2.930000000E+01 9.999996764E-01 1.068108157E-08 4.231542575E-02
2.940000000E+01 9.999996786E-01 1.054423283E-08 4.217149573E-02
2.950000000E+01 9.999996808E-01 1.040942410E-08 4.202854151E-02
2.960000000E+01 9.999996829E-01 1.027661913E-08 4.188655320E-02
2.970000000E+01 9.999996851E-01 1.014578240E-08 4.174552103E-02
2.980000000E+01 9.999996872E-01 1.001687912E-08 4.160543539E-02
2.990000000E+01 9.999996892E-01 9.889875255E-09 4.146628678E-02
3.000000000E+01 9.999996913E-01 9.764737441E-09 4.132806582E-02
3.010000000E+01 9.999996934E-01 9.692262027E-09 4.119076328E-02
3.020000000E+01 9.999996954E-01 9.628181131E-09 4.105437002E-02
3.030000000E+01 9.999996974E-01 9.564733652E-09 4.091887705E-02
3.040000000E+01 9.999996994E-01 9.501911270E-09 4.078427548E-02
3.050000000E+01 9.999997013E-01 9.439705798E-09 4.065055654E-02
3.060000000E+01 9.999997033E-01 9.378109188E-09 4.051771159E-02
3.070000000E+01 9.999997052E-01 9.317113517E-09 4.038573207E-02
3.080000000E+01 9.999997071E-01 9.256710996E-09 4.025460956E-02
3.090000000E+01 9.999997090E-01 9.196893957E-09 4.012433575E-02
3.100000000E+01 9.999997109E-01 9.137654858E-09 3.999490241E-02
3.110000000E+01 9.999997126E-01 8.510169569E-09 3.986630143E-02
3.120000000E+01 9.999997144E-01 8.405682888E-09 3.973852483E-02
3.130000000E+01 9.999997162E-01 8.302673223E-09 3.961156468E-02
3.140000000E+01 9.999997180E-01 8.201115740E-09 3.948541320E-02
3.150000000E+01 9.999997198E-01 8.100986093E-09 3.936006269E-02
3.160000000E+01 9.999997215E-01 8.002260415E-09 3.923550552E-02
3.170000000E+01 9.999997233E-01 7.904915305E-09 3.911173421E-02
3.180000000E+01 9.999997250E-01 7.808927819E-09 3.898874134E-02
3.190000000E+01 9.999997267E-01 7.714275462E-09 3.886651958E-02
3.200000000E+01 9.999997284E-01 7.620936171E-09 3.874506171E-02
3.210000000E+01 9.999997301E-01 7.534672299E-09 3.862436058E-02
3.220000000E+01 9.999997317E-01 7.487945761E-09 3.850440915E-02
3.230000000E+01 9.999997334E-01 7.441652545E-09 3.838520045E-02
3.240000000E+01 9.999997350E-01 7.395787307E-09 3.826672761E-02
3.250000000E+01 9.999997367E-01 7.350344789E-09 3.814898383E-02
3.260000000E+01 9.999997383E-01 7.305319812E-09 3.803196241E-02
3.270000000E+01 9.999997399E-01 7.260707276E-09 3.791565672E-02
