# 08/03/2022 
# Density retrieved from www.chemicool.com/densities.html 
# Includes the real (n) and complex (k) part of the  refractive index. 
# Element, Ru  (Z = 44) 
# Nominal density, g cm-3 =  12.2 
#    E [keV]      n       k    Wavelength [nm] 
2.000000000E+00 9.995282053E-01 6.475062849E-05 6.199209873E-01
2.100000000E+00 9.995765526E-01 5.332028782E-05 5.904009403E-01
2.200000000E+00 9.996188282E-01 4.487321421E-05 5.635645339E-01
2.300000000E+00 9.996557177E-01 3.855530579E-05 5.390617281E-01
2.400000000E+00 9.996870410E-01 3.376974645E-05 5.166008227E-01
2.500000000E+00 9.997188387E-01 2.899961125E-05 4.959367898E-01
2.600000000E+00 9.997421959E-01 2.618466789E-05 4.768622979E-01
2.700000000E+00 9.997764210E-01 2.232052208E-05 4.592007313E-01
2.800000000E+00 9.998067167E-01 1.991776113E-05 4.428007052E-01
2.900000000E+00 9.998233673E-01 6.358205457E-05 4.275317154E-01
3.000000000E+00 9.998331673E-01 7.958359787E-05 4.132806582E-01
3.100000000E+00 9.998182551E-01 6.961126657E-05 3.999490241E-01
3.200000000E+00 9.998260436E-01 6.042789546E-05 3.874506171E-01
3.300000000E+00 9.998288789E-01 6.180925947E-05 3.757096893E-01
3.400000000E+00 9.998367033E-01 5.715607946E-05 3.646594043E-01
3.500000000E+00 9.998396250E-01 4.960149689E-05 3.542405642E-01
3.600000000E+00 9.998469200E-01 4.585424167E-05 3.444005485E-01
3.700000000E+00 9.998521432E-01 4.152125050E-05 3.350924256E-01
3.800000000E+00 9.998582269E-01 3.833983432E-05 3.262742038E-01
3.900000000E+00 9.998654042E-01 3.639889596E-05 3.179081986E-01
4.000000000E+00 9.998691354E-01 3.205691079E-05 3.099604936E-01
4.100000000E+00 9.998747599E-01 2.991732329E-05 3.024004816E-01
4.200000000E+00 9.998795459E-01 2.696093327E-05 2.952004701E-01
4.300000000E+00 9.998843994E-01 2.476455439E-05 2.883353429E-01
4.400000000E+00 9.998893721E-01 2.334077856E-05 2.817822670E-01
4.500000000E+00 9.998935385E-01 2.102254187E-05 2.755204388E-01
4.600000000E+00 9.998977364E-01 1.941155405E-05 2.695308640E-01
4.700000000E+00 9.999019243E-01 1.837602828E-05 2.637961648E-01
4.800000000E+00 9.999055670E-01 1.665966619E-05 2.583004114E-01
4.900000000E+00 9.999091639E-01 1.546515399E-05 2.530289744E-01
5.000000000E+00 9.999126525E-01 1.459346686E-05 2.479683949E-01
5.100000000E+00 9.999160443E-01 1.402678475E-05 2.431062695E-01
5.200000000E+00 9.999189168E-01 1.249647855E-05 2.384311490E-01
5.300000000E+00 9.999218334E-01 1.167948975E-05 2.339324480E-01
5.400000000E+00 9.999247016E-01 1.125092137E-05 2.296003657E-01
5.500000000E+00 9.999272549E-01 1.021920333E-05 2.254258136E-01
5.600000000E+00 9.999297581E-01 9.577123011E-06 2.214003526E-01
5.700000000E+00 9.999321599E-01 9.082664834E-06 2.175161359E-01
5.800000000E+00 9.999344790E-01 8.772169454E-06 2.137658577E-01
5.900000000E+00 9.999364669E-01 7.919777561E-06 2.101427076E-01
6.000000000E+00 9.999384851E-01 7.444804348E-06 2.066403291E-01
6.100000000E+00 9.999404461E-01 7.100228522E-06 2.032527827E-01
6.200000000E+00 9.999423517E-01 6.873035986E-06 1.999745120E-01
6.300000000E+00 9.999441014E-01 6.225015784E-06 1.968003134E-01
6.400000000E+00 9.999458103E-01 5.873244145E-06 1.937253085E-01
6.500000000E+00 9.999474494E-01 5.592546872E-06 1.907449192E-01
6.600000000E+00 9.999490298E-01 5.424359626E-06 1.878548446E-01
6.700000000E+00 9.999505346E-01 4.962418304E-06 1.850510410E-01
6.800000000E+00 9.999519766E-01 4.697848302E-06 1.823297021E-01
6.900000000E+00 9.999533565E-01 4.449789377E-06 1.796872427E-01
7.000000000E+00 9.999546793E-01 4.307488315E-06 1.771202821E-01
7.100000000E+00 9.999559470E-01 4.187005107E-06 1.746256302E-01
7.200000000E+00 9.999571751E-01 3.807614908E-06 1.722002742E-01
7.300000000E+00 9.999583445E-01 3.618717845E-06 1.698413664E-01
7.400000000E+00 9.999594664E-01 3.446226494E-06 1.675462128E-01
7.500000000E+00 9.999605401E-01 3.354939783E-06 1.653122633E-01
7.600000000E+00 9.999615717E-01 3.267232736E-06 1.631371019E-01
7.700000000E+00 9.999625849E-01 2.976048407E-06 1.610184383E-01
7.800000000E+00 9.999635446E-01 2.837941635E-06 1.589540993E-01
7.900000000E+00 9.999644678E-01 2.707366862E-06 1.569420221E-01
8.000000000E+00 9.999653507E-01 2.638900394E-06 1.549802468E-01
8.100000000E+00 9.999662009E-01 2.574144570E-06 1.530669104E-01
8.200000000E+00 9.999670423E-01 2.364024845E-06 1.512002408E-01
8.300000000E+00 9.999678386E-01 2.261322283E-06 1.493785512E-01
8.400000000E+00 9.999686063E-01 2.163882339E-06 1.476002351E-01
8.500000000E+00 9.999693435E-01 2.093965688E-06 1.458637617E-01
8.600000000E+00 9.999700523E-01 2.045551933E-06 1.441676715E-01
8.700000000E+00 9.999707368E-01 1.998798004E-06 1.425105718E-01
8.800000000E+00 9.999714176E-01 1.824822238E-06 1.408911335E-01
8.900000000E+00 9.999720614E-01 1.750307860E-06 1.393080870E-01
9.000000000E+00 9.999726837E-01 1.679369414E-06 1.377602194E-01
9.100000000E+00 9.999732822E-01 1.633281293E-06 1.362463708E-01
9.200000000E+00 9.999738599E-01 1.597968146E-06 1.347654320E-01
9.300000000E+00 9.999744190E-01 1.563787997E-06 1.333163414E-01
9.400000000E+00 9.999749857E-01 1.425489761E-06 1.318980824E-01
9.500000000E+00 9.999755159E-01 1.369164343E-06 1.305096815E-01
9.600000000E+00 9.999760294E-01 1.315404335E-06 1.291502057E-01
9.700000000E+00 9.999765244E-01 1.274701793E-06 1.278187603E-01
9.800000000E+00 9.999770010E-01 1.248820197E-06 1.265144872E-01
9.900000000E+00 9.999774633E-01 1.223718924E-06 1.252365631E-01
1.000000000E+01 9.999779354E-01 1.127644172E-06 1.239841975E-01
1.010000000E+01 9.999783765E-01 1.085879506E-06 1.227566311E-01
1.020000000E+01 9.999788046E-01 1.045903640E-06 1.215531348E-01
1.030000000E+01 9.999792201E-01 1.007625764E-06 1.203730072E-01
1.040000000E+01 9.999796192E-01 9.842417812E-07 1.192155745E-01
1.050000000E+01 9.999800055E-01 9.655835924E-07 1.180801881E-01
1.060000000E+01 9.999803810E-01 9.474509706E-07 1.169662240E-01
1.070000000E+01 9.999807692E-01 8.728752448E-07 1.158730817E-01
1.080000000E+01 9.999811295E-01 8.425970438E-07 1.148001828E-01
1.090000000E+01 9.999814797E-01 8.135335239E-07 1.137469701E-01
1.100000000E+01 9.999818203E-01 7.856269005E-07 1.127129068E-01
1.110000000E+01 9.999821480E-01 7.676178079E-07 1.116974752E-01
1.120000000E+01 9.999824653E-01 7.539715411E-07 1.107001763E-01
1.130000000E+01 9.999827743E-01 7.406859591E-07 1.097205287E-01
1.140000000E+01 9.999830752E-01 7.277484620E-07 1.087580679E-01
1.150000000E+01 9.999833925E-01 6.651837422E-07 1.078123456E-01
1.160000000E+01 9.999836825E-01 6.438161601E-07 1.068829288E-01
1.170000000E+01 9.999839649E-01 6.232459490E-07 1.059693995E-01
1.180000000E+01 9.999842399E-01 6.037340845E-07 1.050713538E-01
1.190000000E+01 9.999845037E-01 5.936299267E-07 1.041884012E-01
1.200000000E+01 9.999847609E-01 5.837773189E-07 1.033201645E-01
1.210000000E+01 9.999850117E-01 5.741679798E-07 1.024662789E-01
1.220000000E+01 9.999852748E-01 5.324225732E-07 1.016263914E-01
1.230000000E+01 9.999855176E-01 5.162253361E-07 1.008001605E-01
1.240000000E+01 9.999857544E-01 5.005994472E-07 9.998725601E-02
1.250000000E+01 9.999859854E-01 4.855209719E-07 9.918735797E-02
1.260000000E+01 9.999862109E-01 4.709671462E-07 9.840015671E-02
1.270000000E+01 9.999864275E-01 4.630621998E-07 9.762535233E-02
1.280000000E+01 9.999866387E-01 4.558551160E-07 9.686265426E-02
1.290000000E+01 9.999868451E-01 4.488149883E-07 9.611178098E-02
1.300000000E+01 9.999870467E-01 4.419366995E-07 9.537245958E-02
1.310000000E+01 9.999872630E-01 4.063962451E-07 9.464442554E-02
1.320000000E+01 9.999874590E-01 3.947550636E-07 9.392742232E-02
1.330000000E+01 9.999876505E-01 3.834982988E-07 9.322120110E-02
1.340000000E+01 9.999878376E-01 3.726108930E-07 9.252552049E-02
1.350000000E+01 9.999880197E-01 3.632522823E-07 9.184014627E-02
1.360000000E+01 9.999881952E-01 3.579299765E-07 9.116485107E-02
1.370000000E+01 9.999883669E-01 3.527237917E-07 9.049941420E-02
1.380000000E+01 9.999885349E-01 3.476303742E-07 8.984362135E-02
1.390000000E+01 9.999886993E-01 3.426464906E-07 8.919726436E-02
1.400000000E+01 9.999888784E-01 3.152769767E-07 8.856014104E-02
1.410000000E+01 9.999890389E-01 3.067720300E-07 8.793205493E-02
1.420000000E+01 9.999891960E-01 2.985307693E-07 8.731281511E-02
1.430000000E+01 9.999893496E-01 2.905435019E-07 8.670223598E-02
1.440000000E+01 9.999895001E-01 2.828009510E-07 8.610013712E-02
1.450000000E+01 9.999896446E-01 2.786690436E-07 8.550634307E-02
1.460000000E+01 9.999897860E-01 2.748647327E-07 8.492068319E-02
1.470000000E+01 9.999899245E-01 2.711377964E-07 8.434299147E-02
1.480000000E+01 9.999900602E-01 2.674861506E-07 8.377310639E-02
1.490000000E+01 9.999902092E-01 2.481529045E-07 8.321087078E-02
1.500000000E+01 9.999903424E-01 2.418284424E-07 8.265613164E-02
1.510000000E+01 9.999904729E-01 2.356887548E-07 8.210874004E-02
1.520000000E+01 9.999906008E-01 2.297274438E-07 8.156855096E-02
1.530000000E+01 9.999907261E-01 2.239383701E-07 8.103542318E-02
1.540000000E+01 9.999908490E-01 2.183156411E-07 8.050921913E-02
1.550000000E+01 9.999909667E-01 2.154606433E-07 7.998980481E-02
1.560000000E+01 9.999910822E-01 2.127071809E-07 7.947704965E-02
1.570000000E+01 9.999911954E-01 2.100061647E-07 7.897082641E-02
1.580000000E+01 9.999913065E-01 2.073562712E-07 7.847101105E-02
1.590000000E+01 9.999914155E-01 2.047562183E-07 7.797748268E-02
1.600000000E+01 9.999915408E-01 1.886332689E-07 7.749012341E-02
1.610000000E+01 9.999916484E-01 1.841539524E-07 7.700881830E-02
1.620000000E+01 9.999917540E-01 1.797966548E-07 7.653345522E-02
1.630000000E+01 9.999918576E-01 1.755574346E-07 7.606392482E-02
1.640000000E+01 9.999919593E-01 1.714324993E-07 7.560012040E-02
1.650000000E+01 9.999920581E-01 1.681307579E-07 7.514193785E-02
1.660000000E+01 9.999921535E-01 1.661111875E-07 7.468927558E-02
1.670000000E+01 9.999922472E-01 1.641277881E-07 7.424203441E-02
1.680000000E+01 9.999923392E-01 1.621797011E-07 7.380011753E-02
1.690000000E+01 9.999924296E-01 1.602660931E-07 7.336343045E-02
1.700000000E+01 9.999925184E-01 1.583861551E-07 7.293188086E-02
1.710000000E+01 9.999926250E-01 1.461580196E-07 7.250537863E-02
1.720000000E+01 9.999927134E-01 1.429212311E-07 7.208383573E-02
1.730000000E+01 9.999928002E-01 1.397669219E-07 7.166716616E-02
1.740000000E+01 9.999928855E-01 1.366925973E-07 7.125528590E-02
1.750000000E+01 9.999929693E-01 1.336958504E-07 7.084811283E-02
1.760000000E+01 9.999930515E-01 1.307898496E-07 7.044556674E-02
1.770000000E+01 9.999931298E-01 1.293161729E-07 7.004756919E-02
1.780000000E+01 9.999932068E-01 1.278672636E-07 6.965404352E-02
1.790000000E+01 9.999932825E-01 1.264425698E-07 6.926491478E-02
1.800000000E+01 9.999933569E-01 1.250415549E-07 6.888010970E-02
1.810000000E+01 9.999934301E-01 1.236636971E-07 6.849955661E-02
1.820000000E+01 9.999935223E-01 1.151717472E-07 6.812318542E-02
1.830000000E+01 9.999935961E-01 1.127871440E-07 6.775092757E-02
1.840000000E+01 9.999936686E-01 1.104595779E-07 6.738271601E-02
1.850000000E+01 9.999937399E-01 1.081874272E-07 6.701848511E-02
1.860000000E+01 9.999938101E-01 1.059691242E-07 6.665817068E-02
1.870000000E+01 9.999938790E-01 1.038031533E-07 6.630170987E-02
1.880000000E+01 9.999939468E-01 1.016880483E-07 6.594904120E-02
1.890000000E+01 9.999940111E-01 1.004753490E-07 6.560010448E-02
1.900000000E+01 9.999940740E-01 9.942049696E-08 6.525484077E-02
1.910000000E+01 9.999941359E-01 9.838216991E-08 6.491319239E-02
1.920000000E+01 9.999941968E-01 9.736002442E-08 6.457510284E-02
1.930000000E+01 9.999942568E-01 9.635372601E-08 6.424051682E-02
1.940000000E+01 9.999943158E-01 9.536294878E-08 6.390938013E-02
1.950000000E+01 9.999944035E-01 8.855169620E-08 6.358163972E-02
1.960000000E+01 9.999944646E-01 8.684216722E-08 6.325724360E-02
1.970000000E+01 9.999945246E-01 8.517082037E-08 6.293614084E-02
1.980000000E+01 9.999945837E-01 8.353664135E-08 6.261828154E-02
1.990000000E+01 9.999946419E-01 8.193864737E-08 6.230361681E-02
2.000000000E+01 9.999946991E-01 8.037588607E-08 6.199209873E-02
2.010000000E+01 9.999947554E-01 7.884743440E-08 6.168368033E-02
2.020000000E+01 9.999948076E-01 7.798969432E-08 6.137831557E-02
2.030000000E+01 9.999948586E-01 7.722321549E-08 6.107595934E-02
2.040000000E+01 9.999949089E-01 7.646798075E-08 6.077656738E-02
2.050000000E+01 9.999949584E-01 7.572377125E-08 6.048009632E-02
2.060000000E+01 9.999950073E-01 7.499037343E-08 6.018650362E-02
2.070000000E+01 9.999950554E-01 7.426757887E-08 5.989574756E-02
2.080000000E+01 9.999951631E-01 6.930477153E-08 5.960778724E-02
2.090000000E+01 9.999952176E-01 6.805523095E-08 5.932258252E-02
2.100000000E+01 9.999952713E-01 6.683183747E-08 5.904009403E-02
2.110000000E+01 9.999953240E-01 6.563393964E-08 5.876028316E-02
2.120000000E+01 9.999953759E-01 6.446090497E-08 5.848311201E-02
2.130000000E+01 9.999954270E-01 6.331211938E-08 5.820854341E-02
2.140000000E+01 9.999954772E-01 6.218698652E-08 5.793654087E-02
2.150000000E+01 9.999955265E-01 6.109063750E-08 5.766706859E-02
2.160000000E+01 9.999955864E-01 6.002787248E-08 5.740009142E-02
2.170000000E+01 9.999956407E-01 5.910979849E-08 5.713557487E-02
2.180000000E+01 9.999956806E-01 5.856875055E-08 5.687348507E-02
2.190000000E+01 9.999958128E-01 5.697881096E-08 5.661378879E-02
2.200000000E+01 9.999958912E-01 5.600251549E-08 5.635645339E-02
2.210000000E+01 9.999960918E-01 5.507371770E-08 5.610144681E-02
2.220000000E+01 9.999959984E-01 3.030671417E-07 5.584873759E-02
2.230000000E+01 9.999960007E-01 3.651469177E-07 5.559829482E-02
2.240000000E+01 9.999959608E-01 3.568826070E-07 5.535008815E-02
2.250000000E+01 9.999959537E-01 3.508752499E-07 5.510408776E-02
2.260000000E+01 9.999959646E-01 3.461270386E-07 5.486026436E-02
2.270000000E+01 9.999960000E-01 3.430841783E-07 5.461858919E-02
2.280000000E+01 9.999959953E-01 3.336097881E-07 5.437903397E-02
2.290000000E+01 9.999960141E-01 3.280804371E-07 5.414157094E-02
2.300000000E+01 9.999960358E-01 3.231367748E-07 5.390617281E-02
2.310000000E+01 9.999960701E-01 3.203451095E-07 5.367281275E-02
2.320000000E+01 9.999961039E-01 3.175894655E-07 5.344146442E-02
2.330000000E+01 9.999961373E-01 3.148692256E-07 5.321210191E-02
2.340000000E+01 9.999961702E-01 3.121837861E-07 5.298469977E-02
2.350000000E+01 9.999962027E-01 3.095325557E-07 5.275923296E-02
2.360000000E+01 9.999962348E-01 3.069149560E-07 5.253567689E-02
2.370000000E+01 9.999962665E-01 3.043304205E-07 5.231400737E-02
2.380000000E+01 9.999962465E-01 2.850205303E-07 5.209420061E-02
2.390000000E+01 9.999962718E-01 2.806886024E-07 5.187623325E-02
2.400000000E+01 9.999962970E-01 2.764349561E-07 5.166008227E-02
2.410000000E+01 9.999963218E-01 2.722578950E-07 5.144572509E-02
2.420000000E+01 9.999963465E-01 2.681557658E-07 5.123313945E-02
2.430000000E+01 9.999963709E-01 2.641269570E-07 5.102230348E-02
2.440000000E+01 9.999963951E-01 2.601698980E-07 5.081319568E-02
2.450000000E+01 9.999964190E-01 2.562830577E-07 5.060579488E-02
2.460000000E+01 9.999964443E-01 2.529713986E-07 5.040008027E-02
2.470000000E+01 9.999964730E-01 2.509271936E-07 5.019603136E-02
2.480000000E+01 9.999965014E-01 2.489076671E-07 4.999362801E-02
2.490000000E+01 9.999965295E-01 2.469124233E-07 4.979285038E-02
2.500000000E+01 9.999965572E-01 2.449410745E-07 4.959367898E-02
2.510000000E+01 9.999965845E-01 2.429932407E-07 4.939609460E-02
2.520000000E+01 9.999966116E-01 2.410685493E-07 4.920007836E-02
2.530000000E+01 9.999966383E-01 2.391666352E-07 4.900561164E-02
2.540000000E+01 9.999966442E-01 2.252231768E-07 4.881267616E-02
2.550000000E+01 9.999966681E-01 2.220693013E-07 4.862125391E-02
2.560000000E+01 9.999966918E-01 2.189685172E-07 4.843132713E-02
2.570000000E+01 9.999967152E-01 2.159197489E-07 4.824287839E-02
2.580000000E+01 9.999967383E-01 2.129219467E-07 4.805589049E-02
2.590000000E+01 9.999967612E-01 2.099740857E-07 4.787034651E-02
2.600000000E+01 9.999967839E-01 2.070751652E-07 4.768622979E-02
2.610000000E+01 9.999968063E-01 2.042242083E-07 4.750352393E-02
2.620000000E+01 9.999968286E-01 2.014202606E-07 4.732221277E-02
2.630000000E+01 9.999968513E-01 1.991249648E-07 4.714228040E-02
2.640000000E+01 9.999968751E-01 1.976192993E-07 4.696371116E-02
2.650000000E+01 9.999968987E-01 1.961306470E-07 4.678648961E-02
2.660000000E+01 9.999969219E-01 1.946587524E-07 4.661060055E-02
2.670000000E+01 9.999969450E-01 1.932033650E-07 4.643602901E-02
2.680000000E+01 9.999969677E-01 1.917642388E-07 4.626276025E-02
2.690000000E+01 9.999969902E-01 1.903411325E-07 4.609077972E-02
2.700000000E+01 9.999970125E-01 1.889338092E-07 4.592007313E-02
2.710000000E+01 9.999970345E-01 1.875420363E-07 4.575062637E-02
2.720000000E+01 9.999970442E-01 1.757732267E-07 4.558242554E-02
2.730000000E+01 9.999970646E-01 1.734295405E-07 4.541545694E-02
2.740000000E+01 9.999970848E-01 1.711229924E-07 4.524970710E-02
2.750000000E+01 9.999971048E-01 1.688528767E-07 4.508516271E-02
2.760000000E+01 9.999971245E-01 1.666185030E-07 4.492181067E-02
2.770000000E+01 9.999971441E-01 1.644191966E-07 4.475963807E-02
2.780000000E+01 9.999971635E-01 1.622542977E-07 4.459863218E-02
2.790000000E+01 9.999971826E-01 1.601231611E-07 4.443878045E-02
2.800000000E+01 9.999972016E-01 1.580251557E-07 4.428007052E-02
2.810000000E+01 9.999972207E-01 1.561840748E-07 4.412249020E-02
2.820000000E+01 9.999972403E-01 1.550783504E-07 4.396602747E-02
2.830000000E+01 9.999972598E-01 1.539843266E-07 4.381067048E-02
2.840000000E+01 9.999972791E-01 1.529018391E-07 4.365640756E-02
2.850000000E+01 9.999972981E-01 1.518307262E-07 4.350322718E-02
2.860000000E+01 9.999973170E-01 1.507708291E-07 4.335111799E-02
2.870000000E+01 9.999973357E-01 1.497219917E-07 4.320006880E-02
2.880000000E+01 9.999973541E-01 1.486840607E-07 4.305006856E-02
2.890000000E+01 9.999973724E-01 1.476568855E-07 4.290110639E-02
2.900000000E+01 9.999973905E-01 1.466403179E-07 4.275317154E-02
2.910000000E+01 9.999974015E-01 1.370260937E-07 4.260625342E-02
2.920000000E+01 9.999974186E-01 1.352863077E-07 4.246034160E-02
2.930000000E+01 9.999974355E-01 1.335724832E-07 4.231542575E-02
2.940000000E+01 9.999974523E-01 1.318841569E-07 4.217149573E-02
2.950000000E+01 9.999974689E-01 1.302208751E-07 4.202854151E-02
2.960000000E+01 9.999974854E-01 1.285821936E-07 4.188655320E-02
2.970000000E+01 9.999975017E-01 1.269676777E-07 4.174552103E-02
2.980000000E+01 9.999975178E-01 1.253769014E-07 4.160543539E-02
2.990000000E+01 9.999975338E-01 1.238094477E-07 4.146628678E-02
3.000000000E+01 9.999975497E-01 1.222649081E-07 4.132806582E-02
3.010000000E+01 9.999975658E-01 1.213603173E-07 4.119076328E-02
3.020000000E+01 9.999975819E-01 1.205579372E-07 4.105437002E-02
3.030000000E+01 9.999975979E-01 1.197634884E-07 4.091887705E-02
3.040000000E+01 9.999976137E-01 1.189768666E-07 4.078427548E-02
3.050000000E+01 9.999976293E-01 1.181979694E-07 4.065055654E-02
3.060000000E+01 9.999976447E-01 1.174266960E-07 4.051771159E-02
3.070000000E+01 9.999976601E-01 1.166629471E-07 4.038573207E-02
3.080000000E+01 9.999976752E-01 1.159066253E-07 4.025460956E-02
3.090000000E+01 9.999976903E-01 1.151576345E-07 4.012433575E-02
3.100000000E+01 9.999977051E-01 1.144158804E-07 3.999490241E-02
3.110000000E+01 9.999977159E-01 1.069572529E-07 3.986630143E-02
3.120000000E+01 9.999977302E-01 1.056814183E-07 3.973852483E-02
3.130000000E+01 9.999977443E-01 1.044234329E-07 3.961156468E-02
3.140000000E+01 9.999977583E-01 1.031829983E-07 3.948541320E-02
3.150000000E+01 9.999977722E-01 1.019598219E-07 3.936006269E-02
3.160000000E+01 9.999977859E-01 1.007536165E-07 3.923550552E-02
3.170000000E+01 9.999977996E-01 9.956410103E-08 3.911173421E-02
3.180000000E+01 9.999978131E-01 9.839099949E-08 3.898874134E-02
3.190000000E+01 9.999978264E-01 9.723404140E-08 3.886651958E-02
3.200000000E+01 9.999978397E-01 9.609296146E-08 3.874506171E-02
3.210000000E+01 9.999978529E-01 9.503587237E-08 3.862436058E-02
3.220000000E+01 9.999978662E-01 9.444650404E-08 3.850440915E-02
3.230000000E+01 9.999978794E-01 9.386260124E-08 3.838520045E-02
3.240000000E+01 9.999978924E-01 9.328409660E-08 3.826672761E-02
3.250000000E+01 9.999979054E-01 9.271092379E-08 3.814898383E-02
3.260000000E+01 9.999979182E-01 9.214301747E-08 3.803196241E-02
3.270000000E+01 9.999979309E-01 9.158031334E-08 3.791565672E-02
