# 08/03/2022 
# Density retrieved from www.chemicool.com/densities.html 
# Includes the real (n) and complex (k) part of the  refractive index. 
# Element, Sc  (Z = 21) 
# Nominal density, g cm-3 =  3.0 
#    E [keV]      n       k    Wavelength [nm] 
2.000000000E+00 9.998576153E-01 1.270170557E-05 6.199209873E-01
2.100000000E+00 9.998713347E-01 1.029762151E-05 5.904009403E-01
2.200000000E+00 9.998831672E-01 8.538506899E-06 5.635645339E-01
2.300000000E+00 9.998934134E-01 7.250051876E-06 5.390617281E-01
2.400000000E+00 9.999023208E-01 6.291516282E-06 5.166008227E-01
2.500000000E+00 9.999102953E-01 5.334997792E-06 4.959367898E-01
2.600000000E+00 9.999171565E-01 4.795637502E-06 4.768622979E-01
2.700000000E+00 9.999235245E-01 4.024637528E-06 4.592007313E-01
2.800000000E+00 9.999289220E-01 3.702464862E-06 4.428007052E-01
2.900000000E+00 9.999340793E-01 3.102436270E-06 4.275317154E-01
3.000000000E+00 9.999384089E-01 2.890757407E-06 4.132806582E-01
3.100000000E+00 9.999426500E-01 2.411721105E-06 3.999490241E-01
3.200000000E+00 9.999461859E-01 2.256639545E-06 3.874506171E-01
3.300000000E+00 9.999497548E-01 1.890553768E-06 3.757096893E-01
3.400000000E+00 9.999526984E-01 1.760562026E-06 3.646594043E-01
3.500000000E+00 9.999557145E-01 1.504185772E-06 3.542405642E-01
3.600000000E+00 9.999582242E-01 1.384432873E-06 3.444005485E-01
3.700000000E+00 9.999607946E-01 1.212637041E-06 3.350924256E-01
3.800000000E+00 9.999630170E-01 1.096468874E-06 3.262742038E-01
3.900000000E+00 9.999648893E-01 1.040960588E-06 3.179081986E-01
4.000000000E+00 9.999672112E-01 8.968526222E-07 3.099604936E-01
4.100000000E+00 9.999689287E-01 8.319639155E-07 3.024004816E-01
4.200000000E+00 9.999712163E-01 7.436566232E-07 2.952004701E-01
4.300000000E+00 9.999730497E-01 6.790928037E-07 2.883353429E-01
4.400000000E+00 9.999752216E-01 6.214217970E-07 2.817822670E-01
4.500000000E+00 9.999808643E-01 5.728730210E-07 2.755204388E-01
4.600000000E+00 9.999770931E-01 5.066383122E-06 2.695308640E-01
4.700000000E+00 9.999773592E-01 4.754378614E-06 2.637961648E-01
4.800000000E+00 9.999773571E-01 4.293898437E-06 2.583004114E-01
4.900000000E+00 9.999777629E-01 3.976582137E-06 2.530289744E-01
5.000000000E+00 9.999783905E-01 3.747591890E-06 2.479683949E-01
5.100000000E+00 9.999792296E-01 3.602068330E-06 2.431062695E-01
5.200000000E+00 9.999795405E-01 3.209101396E-06 2.384311490E-01
5.300000000E+00 9.999801366E-01 2.999303841E-06 2.339324480E-01
5.400000000E+00 9.999808654E-01 2.889247082E-06 2.296003657E-01
5.500000000E+00 9.999813465E-01 2.627877177E-06 2.254258136E-01
5.600000000E+00 9.999819134E-01 2.464464672E-06 2.214003526E-01
5.700000000E+00 9.999824887E-01 2.338233096E-06 2.175161359E-01
5.800000000E+00 9.999830874E-01 2.258299444E-06 2.137658577E-01
5.900000000E+00 9.999835169E-01 2.043802721E-06 2.101427076E-01
6.000000000E+00 9.999840086E-01 1.923252365E-06 2.066403291E-01
6.100000000E+00 9.999845031E-01 1.835236675E-06 2.032527827E-01
6.200000000E+00 9.999849990E-01 1.776512921E-06 1.999745120E-01
6.300000000E+00 9.999853897E-01 1.609838766E-06 1.968003134E-01
6.400000000E+00 9.999858126E-01 1.519191693E-06 1.937253085E-01
6.500000000E+00 9.999862266E-01 1.446798054E-06 1.907449192E-01
6.600000000E+00 9.999866408E-01 1.403287828E-06 1.878548446E-01
6.700000000E+00 9.999869926E-01 1.284403097E-06 1.850510410E-01
6.800000000E+00 9.999873549E-01 1.216186794E-06 1.823297021E-01
6.900000000E+00 9.999877022E-01 1.152221593E-06 1.796872427E-01
7.000000000E+00 9.999880488E-01 1.115411272E-06 1.771202821E-01
7.100000000E+00 9.999883830E-01 1.084212504E-06 1.746256302E-01
7.200000000E+00 9.999886731E-01 9.856123526E-07 1.722002742E-01
7.300000000E+00 9.999889715E-01 9.365919955E-07 1.698413664E-01
7.400000000E+00 9.999892589E-01 8.918360620E-07 1.675462128E-01
7.500000000E+00 9.999895434E-01 8.682123156E-07 1.653122633E-01
7.600000000E+00 9.999898168E-01 8.455149369E-07 1.631371019E-01
7.700000000E+00 9.999900611E-01 7.691725154E-07 1.610184383E-01
7.800000000E+00 9.999903087E-01 7.331600978E-07 1.589540993E-01
7.900000000E+00 9.999905473E-01 6.991182148E-07 1.569420221E-01
8.000000000E+00 9.999907820E-01 6.814318197E-07 1.549802468E-01
8.100000000E+00 9.999910082E-01 6.647102036E-07 1.530669104E-01
8.200000000E+00 9.999912161E-01 6.093921932E-07 1.512002408E-01
8.300000000E+00 9.999914233E-01 5.825665588E-07 1.493785512E-01
8.400000000E+00 9.999916233E-01 5.571222990E-07 1.476002351E-01
8.500000000E+00 9.999918179E-01 5.389681019E-07 1.458637617E-01
8.600000000E+00 9.999920071E-01 5.265068329E-07 1.441676715E-01
8.700000000E+00 9.999921898E-01 5.144727885E-07 1.425105718E-01
8.800000000E+00 9.999923504E-01 4.690001023E-07 1.408911335E-01
8.900000000E+00 9.999925172E-01 4.496547680E-07 1.393080870E-01
9.000000000E+00 9.999926786E-01 4.312412984E-07 1.377602194E-01
9.100000000E+00 9.999928375E-01 4.193503116E-07 1.362463708E-01
9.200000000E+00 9.999929923E-01 4.102835456E-07 1.347654320E-01
9.300000000E+00 9.999931422E-01 4.015076807E-07 1.333163414E-01
9.400000000E+00 9.999932847E-01 3.652434912E-07 1.318980824E-01
9.500000000E+00 9.999934246E-01 3.506074273E-07 1.305096815E-01
9.600000000E+00 9.999935602E-01 3.366413100E-07 1.291502057E-01
9.700000000E+00 9.999936920E-01 3.261146663E-07 1.278187603E-01
9.800000000E+00 9.999938201E-01 3.194932211E-07 1.265144872E-01
9.900000000E+00 9.999939443E-01 3.130714106E-07 1.252365631E-01
1.000000000E+01 9.999940647E-01 2.878014503E-07 1.239841975E-01
1.010000000E+01 9.999941816E-01 2.769419572E-07 1.227566311E-01
1.020000000E+01 9.999942951E-01 2.665506673E-07 1.215531348E-01
1.030000000E+01 9.999944053E-01 2.566037315E-07 1.203730072E-01
1.040000000E+01 9.999945124E-01 2.506044375E-07 1.192155745E-01
1.050000000E+01 9.999946164E-01 2.458537502E-07 1.180801881E-01
1.060000000E+01 9.999947175E-01 2.412368811E-07 1.169662240E-01
1.070000000E+01 9.999948168E-01 2.215955562E-07 1.158730817E-01
1.080000000E+01 9.999949126E-01 2.137355408E-07 1.148001828E-01
1.090000000E+01 9.999950058E-01 2.061933488E-07 1.137469701E-01
1.100000000E+01 9.999950964E-01 1.989537994E-07 1.127129068E-01
1.110000000E+01 9.999951844E-01 1.943428289E-07 1.116974752E-01
1.120000000E+01 9.999952700E-01 1.908879141E-07 1.107001763E-01
1.130000000E+01 9.999953534E-01 1.875243163E-07 1.097205287E-01
1.140000000E+01 9.999954345E-01 1.842488454E-07 1.087580679E-01
1.150000000E+01 9.999955153E-01 1.677993261E-07 1.078123456E-01
1.160000000E+01 9.999955927E-01 1.622786413E-07 1.068829288E-01
1.170000000E+01 9.999956680E-01 1.569657364E-07 1.059693995E-01
1.180000000E+01 9.999957414E-01 1.519299977E-07 1.050713538E-01
1.190000000E+01 9.999958127E-01 1.493872811E-07 1.041884012E-01
1.200000000E+01 9.999958822E-01 1.469078672E-07 1.033201645E-01
1.210000000E+01 9.999959500E-01 1.444896720E-07 1.024662789E-01
1.220000000E+01 9.999960177E-01 1.336245495E-07 1.016263914E-01
1.230000000E+01 9.999960826E-01 1.294701220E-07 1.008001605E-01
1.240000000E+01 9.999961459E-01 1.254633761E-07 9.998725601E-02
1.250000000E+01 9.999962076E-01 1.215981007E-07 9.918735797E-02
1.260000000E+01 9.999962679E-01 1.178683892E-07 9.840015671E-02
1.270000000E+01 9.999963265E-01 1.158835617E-07 9.762535233E-02
1.280000000E+01 9.999963837E-01 1.140799540E-07 9.686265426E-02
1.290000000E+01 9.999964395E-01 1.123181279E-07 9.611178098E-02
1.300000000E+01 9.999964941E-01 1.105968027E-07 9.537245958E-02
1.310000000E+01 9.999965492E-01 1.015236127E-07 9.464442554E-02
1.320000000E+01 9.999966016E-01 9.857884428E-08 9.392742232E-02
1.330000000E+01 9.999966529E-01 9.573174896E-08 9.322120110E-02
1.340000000E+01 9.999967030E-01 9.297849222E-08 9.252552049E-02
1.350000000E+01 9.999967519E-01 9.061645699E-08 9.184014627E-02
1.360000000E+01 9.999967995E-01 8.928876128E-08 9.116485107E-02
1.370000000E+01 9.999968460E-01 8.799003296E-08 9.049941420E-02
1.380000000E+01 9.999968916E-01 8.671943545E-08 8.984362135E-02
1.390000000E+01 9.999969361E-01 8.547616214E-08 8.919726436E-02
1.400000000E+01 9.999969814E-01 7.858167203E-08 8.856014104E-02
1.410000000E+01 9.999970244E-01 7.644893740E-08 8.793205493E-02
1.420000000E+01 9.999970664E-01 7.438246710E-08 8.731281511E-02
1.430000000E+01 9.999971076E-01 7.237982269E-08 8.670223598E-02
1.440000000E+01 9.999971479E-01 7.043867042E-08 8.610013712E-02
1.450000000E+01 9.999971871E-01 6.940869341E-08 8.550634307E-02
1.460000000E+01 9.999972255E-01 6.846114556E-08 8.492068319E-02
1.470000000E+01 9.999972631E-01 6.753286958E-08 8.434299147E-02
1.480000000E+01 9.999973000E-01 6.662334637E-08 8.377310639E-02
1.490000000E+01 9.999973374E-01 6.181390879E-08 8.321087078E-02
1.500000000E+01 9.999973731E-01 6.023972292E-08 8.265613164E-02
1.510000000E+01 9.999974080E-01 5.871151577E-08 8.210874004E-02
1.520000000E+01 9.999974422E-01 5.722769553E-08 8.156855096E-02
1.530000000E+01 9.999974758E-01 5.578673474E-08 8.103542318E-02
1.540000000E+01 9.999975087E-01 5.438716728E-08 8.050921913E-02
1.550000000E+01 9.999975407E-01 5.367594542E-08 7.998980481E-02
1.560000000E+01 9.999975722E-01 5.298999789E-08 7.947704965E-02
1.570000000E+01 9.999976030E-01 5.231711585E-08 7.897082641E-02
1.580000000E+01 9.999976332E-01 5.165696958E-08 7.847101105E-02
1.590000000E+01 9.999976629E-01 5.100923969E-08 7.797748268E-02
1.600000000E+01 9.999976933E-01 4.697745032E-08 7.749012341E-02
1.610000000E+01 9.999977221E-01 4.585934100E-08 7.700881830E-02
1.620000000E+01 9.999977504E-01 4.477171418E-08 7.653345522E-02
1.630000000E+01 9.999977781E-01 4.371358484E-08 7.606392482E-02
1.640000000E+01 9.999978053E-01 4.268400514E-08 7.560012040E-02
1.650000000E+01 9.999978319E-01 4.186037548E-08 7.514193785E-02
1.660000000E+01 9.999978580E-01 4.135755271E-08 7.468927558E-02
1.670000000E+01 9.999978835E-01 4.086373561E-08 7.424203441E-02
1.680000000E+01 9.999979086E-01 4.037871041E-08 7.380011753E-02
1.690000000E+01 9.999979333E-01 3.990226962E-08 7.336343045E-02
1.700000000E+01 9.999979576E-01 3.943421185E-08 7.293188086E-02
1.710000000E+01 9.999979825E-01 3.636016720E-08 7.250537863E-02
1.720000000E+01 9.999980061E-01 3.555024098E-08 7.208383573E-02
1.730000000E+01 9.999980292E-01 3.476099549E-08 7.166716616E-02
1.740000000E+01 9.999980519E-01 3.399180451E-08 7.125528590E-02
1.750000000E+01 9.999980743E-01 3.324206397E-08 7.084811283E-02
1.760000000E+01 9.999980963E-01 3.251509185E-08 7.044556674E-02
1.770000000E+01 9.999981177E-01 3.214872754E-08 7.004756919E-02
1.780000000E+01 9.999981388E-01 3.178852055E-08 6.965404352E-02
1.790000000E+01 9.999981595E-01 3.143433367E-08 6.926491478E-02
1.800000000E+01 9.999981799E-01 3.108603349E-08 6.888010970E-02
1.810000000E+01 9.999982000E-01 3.074349028E-08 6.849955661E-02
1.820000000E+01 9.999982205E-01 2.859981324E-08 6.812318542E-02
1.830000000E+01 9.999982401E-01 2.800219433E-08 6.775092757E-02
1.840000000E+01 9.999982593E-01 2.741891633E-08 6.738271601E-02
1.850000000E+01 9.999982782E-01 2.684957084E-08 6.701848511E-02
1.860000000E+01 9.999982968E-01 2.629376307E-08 6.665817068E-02
1.870000000E+01 9.999983150E-01 2.575111127E-08 6.630170987E-02
1.880000000E+01 9.999983330E-01 2.522124630E-08 6.594904120E-02
1.890000000E+01 9.999983506E-01 2.491974905E-08 6.560010448E-02
1.900000000E+01 9.999983680E-01 2.465812620E-08 6.525484077E-02
1.910000000E+01 9.999983850E-01 2.440060184E-08 6.491319239E-02
1.920000000E+01 9.999984018E-01 2.414709081E-08 6.457510284E-02
1.930000000E+01 9.999984183E-01 2.389751016E-08 6.424051682E-02
1.940000000E+01 9.999984346E-01 2.365177904E-08 6.390938013E-02
1.950000000E+01 9.999984513E-01 2.188834388E-08 6.358163972E-02
1.960000000E+01 9.999984672E-01 2.145483795E-08 6.325724360E-02
1.970000000E+01 9.999984828E-01 2.103110152E-08 6.293614084E-02
1.980000000E+01 9.999984982E-01 2.061687385E-08 6.261828154E-02
1.990000000E+01 9.999985133E-01 2.021190236E-08 6.230361681E-02
2.000000000E+01 9.999985283E-01 1.981594231E-08 6.199209873E-02
2.010000000E+01 9.999985430E-01 1.942875650E-08 6.168368033E-02
2.020000000E+01 9.999985574E-01 1.921627064E-08 6.137831557E-02
2.030000000E+01 9.999985715E-01 1.902741409E-08 6.107595934E-02
2.040000000E+01 9.999985855E-01 1.884132803E-08 6.077656738E-02
2.050000000E+01 9.999985993E-01 1.865795853E-08 6.048009632E-02
2.060000000E+01 9.999986128E-01 1.847725298E-08 6.018650362E-02
2.070000000E+01 9.999986262E-01 1.829916001E-08 5.989574756E-02
2.080000000E+01 9.999986400E-01 1.698636129E-08 5.960778724E-02
2.090000000E+01 9.999986531E-01 1.666689255E-08 5.932258252E-02
2.100000000E+01 9.999986659E-01 1.635420803E-08 5.904009403E-02
2.110000000E+01 9.999986786E-01 1.604813743E-08 5.876028316E-02
2.120000000E+01 9.999986911E-01 1.574851542E-08 5.848311201E-02
2.130000000E+01 9.999987035E-01 1.545518153E-08 5.820854341E-02
2.140000000E+01 9.999987156E-01 1.516797991E-08 5.793654087E-02
2.150000000E+01 9.999987276E-01 1.488828713E-08 5.766706859E-02
2.160000000E+01 9.999987394E-01 1.475075173E-08 5.740009142E-02
2.170000000E+01 9.999987510E-01 1.461511336E-08 5.713557487E-02
2.180000000E+01 9.999987624E-01 1.448133728E-08 5.687348507E-02
2.190000000E+01 9.999987737E-01 1.434938956E-08 5.661378879E-02
2.200000000E+01 9.999987848E-01 1.421923704E-08 5.635645339E-02
2.210000000E+01 9.999987958E-01 1.409084730E-08 5.610144681E-02
2.220000000E+01 9.999988066E-01 1.396418864E-08 5.584873759E-02
2.230000000E+01 9.999988178E-01 1.289723830E-08 5.559829482E-02
2.240000000E+01 9.999988284E-01 1.267048876E-08 5.535008815E-02
2.250000000E+01 9.999988389E-01 1.244823728E-08 5.510408776E-02
2.260000000E+01 9.999988492E-01 1.223037838E-08 5.486026436E-02
2.270000000E+01 9.999988594E-01 1.201680944E-08 5.461858919E-02
2.280000000E+01 9.999988694E-01 1.180743069E-08 5.437903397E-02
2.290000000E+01 9.999988793E-01 1.160214503E-08 5.414157094E-02
2.300000000E+01 9.999988891E-01 1.141959142E-08 5.390617281E-02
2.310000000E+01 9.999988987E-01 1.132093451E-08 5.367281275E-02
2.320000000E+01 9.999989082E-01 1.122355057E-08 5.344146442E-02
2.330000000E+01 9.999989175E-01 1.112741782E-08 5.321210191E-02
2.340000000E+01 9.999989268E-01 1.103251490E-08 5.298469977E-02
2.350000000E+01 9.999989359E-01 1.093882093E-08 5.275923296E-02
2.360000000E+01 9.999989449E-01 1.084631546E-08 5.253567689E-02
2.370000000E+01 9.999989538E-01 1.075497848E-08 5.231400737E-02
2.380000000E+01 9.999989630E-01 9.971653567E-09 5.209420061E-02
2.390000000E+01 9.999989717E-01 9.807652859E-09 5.187623325E-02
2.400000000E+01 9.999989803E-01 9.646700724E-09 5.166008227E-02
2.410000000E+01 9.999989888E-01 9.488730126E-09 5.144572509E-02
2.420000000E+01 9.999989972E-01 9.333675752E-09 5.123313945E-02
2.430000000E+01 9.999990055E-01 9.181473961E-09 5.102230348E-02
2.440000000E+01 9.999990136E-01 9.032062732E-09 5.081319568E-02
2.450000000E+01 9.999990217E-01 8.885381620E-09 5.060579488E-02
2.460000000E+01 9.999990297E-01 8.762319656E-09 5.040008027E-02
2.470000000E+01 9.999990375E-01 8.691513323E-09 5.019603136E-02
2.480000000E+01 9.999990453E-01 8.621561790E-09 4.999362801E-02
2.490000000E+01 9.999990529E-01 8.552451353E-09 4.979285038E-02
2.500000000E+01 9.999990605E-01 8.484168581E-09 4.959367898E-02
2.510000000E+01 9.999990680E-01 8.416700311E-09 4.939609460E-02
2.520000000E+01 9.999990753E-01 8.350033641E-09 4.920007836E-02
2.530000000E+01 9.999990826E-01 8.284155921E-09 4.900561164E-02
2.540000000E+01 9.999990902E-01 7.709925002E-09 4.881267616E-02
2.550000000E+01 9.999990973E-01 7.590874800E-09 4.862125391E-02
2.560000000E+01 9.999991044E-01 7.473900845E-09 4.843132713E-02
2.570000000E+01 9.999991114E-01 7.358960303E-09 4.824287839E-02
2.580000000E+01 9.999991183E-01 7.246011372E-09 4.805589049E-02
2.590000000E+01 9.999991252E-01 7.135013254E-09 4.787034651E-02
2.600000000E+01 9.999991319E-01 7.025926129E-09 4.768622979E-02
2.610000000E+01 9.999991386E-01 6.918711124E-09 4.750352393E-02
2.620000000E+01 9.999991452E-01 6.813330290E-09 4.732221277E-02
2.630000000E+01 9.999991517E-01 6.729268375E-09 4.714228040E-02
2.640000000E+01 9.999991581E-01 6.678385621E-09 4.696371116E-02
2.650000000E+01 9.999991645E-01 6.628077810E-09 4.678648961E-02
2.660000000E+01 9.999991707E-01 6.578336314E-09 4.661060055E-02
2.670000000E+01 9.999991769E-01 6.529152663E-09 4.643602901E-02
2.680000000E+01 9.999991831E-01 6.480518548E-09 4.626276025E-02
2.690000000E+01 9.999991891E-01 6.432425812E-09 4.609077972E-02
2.700000000E+01 9.999991951E-01 6.384866450E-09 4.592007313E-02
2.710000000E+01 9.999992010E-01 6.337832603E-09 4.575062637E-02
2.720000000E+01 9.999992072E-01 5.863867791E-09 4.558242554E-02
2.730000000E+01 9.999992130E-01 5.777457548E-09 4.541545694E-02
2.740000000E+01 9.999992188E-01 5.692465678E-09 4.524970710E-02
2.750000000E+01 9.999992245E-01 5.608864732E-09 4.508516271E-02
2.760000000E+01 9.999992301E-01 5.526627878E-09 4.492181067E-02
2.770000000E+01 9.999992357E-01 5.445728890E-09 4.475963807E-02
2.780000000E+01 9.999992412E-01 5.366142130E-09 4.459863218E-02
2.790000000E+01 9.999992467E-01 5.287842533E-09 4.443878045E-02
2.800000000E+01 9.999992521E-01 5.210805591E-09 4.428007052E-02
2.810000000E+01 9.999992574E-01 5.144237586E-09 4.412249020E-02
2.820000000E+01 9.999992627E-01 5.107818320E-09 4.396602747E-02
2.830000000E+01 9.999992679E-01 5.071784440E-09 4.381067048E-02
2.840000000E+01 9.999992730E-01 5.036130530E-09 4.365640756E-02
2.850000000E+01 9.999992781E-01 5.000851266E-09 4.350322718E-02
2.860000000E+01 9.999992831E-01 4.965941416E-09 4.335111799E-02
2.870000000E+01 9.999992881E-01 4.931395841E-09 4.320006880E-02
2.880000000E+01 9.999992931E-01 4.897209491E-09 4.305006856E-02
2.890000000E+01 9.999992980E-01 4.863377403E-09 4.290110639E-02
2.900000000E+01 9.999993028E-01 4.829894697E-09 4.275317154E-02
2.910000000E+01 9.999993078E-01 4.459639145E-09 4.260625342E-02
2.920000000E+01 9.999993126E-01 4.397703857E-09 4.246034160E-02
2.930000000E+01 9.999993173E-01 4.336721923E-09 4.231542575E-02
2.940000000E+01 9.999993219E-01 4.276676060E-09 4.217149573E-02
2.950000000E+01 9.999993266E-01 4.217549348E-09 4.202854151E-02
2.960000000E+01 9.999993311E-01 4.159325227E-09 4.188655320E-02
2.970000000E+01 9.999993356E-01 4.101987481E-09 4.174552103E-02
2.980000000E+01 9.999993401E-01 4.045520237E-09 4.160543539E-02
2.990000000E+01 9.999993445E-01 3.989907952E-09 4.146628678E-02
3.000000000E+01 9.999993489E-01 3.935135408E-09 4.132806582E-02
3.010000000E+01 9.999993532E-01 3.905368131E-09 4.119076328E-02
3.020000000E+01 9.999993575E-01 3.879547587E-09 4.105437002E-02
3.030000000E+01 9.999993618E-01 3.853982268E-09 4.091887705E-02
3.040000000E+01 9.999993659E-01 3.828668824E-09 4.078427548E-02
3.050000000E+01 9.999993701E-01 3.803603957E-09 4.065055654E-02
3.060000000E+01 9.999993742E-01 3.778784421E-09 4.051771159E-02
3.070000000E+01 9.999993783E-01 3.754207027E-09 4.038573207E-02
3.080000000E+01 9.999993823E-01 3.729868634E-09 4.025460956E-02
3.090000000E+01 9.999993863E-01 3.705766153E-09 4.012433575E-02
3.100000000E+01 9.999993903E-01 3.681896546E-09 3.999490241E-02
3.110000000E+01 9.999993944E-01 3.403158178E-09 3.986630143E-02
3.120000000E+01 9.999993983E-01 3.358944650E-09 3.973852483E-02
3.130000000E+01 9.999994021E-01 3.315368203E-09 3.961156468E-02
3.140000000E+01 9.999994059E-01 3.272418023E-09 3.948541320E-02
3.150000000E+01 9.999994097E-01 3.230083507E-09 3.936006269E-02
3.160000000E+01 9.999994135E-01 3.188354265E-09 3.923550552E-02
3.170000000E+01 9.999994172E-01 3.147220108E-09 3.911173421E-02
3.180000000E+01 9.999994209E-01 3.106671049E-09 3.898874134E-02
3.190000000E+01 9.999994245E-01 3.066697296E-09 3.886651958E-02
3.200000000E+01 9.999994281E-01 3.027289248E-09 3.874506171E-02
3.210000000E+01 9.999994317E-01 2.991031451E-09 3.862436058E-02
3.220000000E+01 9.999994352E-01 2.972482463E-09 3.850440915E-02
3.230000000E+01 9.999994387E-01 2.954105491E-09 3.838520045E-02
3.240000000E+01 9.999994422E-01 2.935898412E-09 3.826672761E-02
3.250000000E+01 9.999994456E-01 2.917859141E-09 3.814898383E-02
3.260000000E+01 9.999994490E-01 2.899985620E-09 3.803196241E-02
3.270000000E+01 9.999994524E-01 2.882275825E-09 3.791565672E-02
