# 11/03/2022 
# Density retrieved from www.chemicool.com/densities.html 
# Includes the real (n) and complex (k) part of the  refractive index. 
# Elements, SiO  
# Nominal density, g cm-3 =  [2.13] 
#    E [keV]      n       k    Wavelength [nm] 
2.000000000E+00 9.999013568E-01 2.214650204E-05 6.199209873E-01
2.100000000E+00 9.999053415E-01 1.817830714E-05 5.904009403E-01
2.200000000E+00 9.999116356E-01 1.509770619E-05 5.635645339E-01
2.300000000E+00 9.999180735E-01 1.280863878E-05 5.390617281E-01
2.400000000E+00 9.999241305E-01 1.110087077E-05 5.166008227E-01
2.500000000E+00 9.999294994E-01 9.420700224E-06 4.959367898E-01
2.600000000E+00 9.999346470E-01 8.470699023E-06 4.768622979E-01
2.700000000E+00 9.999389796E-01 7.119663947E-06 4.592007313E-01
2.800000000E+00 9.999432209E-01 6.550860432E-06 4.428007052E-01
2.900000000E+00 9.999467880E-01 5.493251285E-06 4.275317154E-01
3.000000000E+00 9.999502697E-01 5.118554110E-06 4.132806582E-01
3.100000000E+00 9.999532436E-01 4.295840863E-06 3.999490241E-01
3.200000000E+00 9.999561161E-01 4.020253522E-06 3.874506171E-01
3.300000000E+00 9.999586419E-01 3.403337354E-06 3.757096893E-01
3.400000000E+00 9.999610307E-01 3.172822333E-06 3.646594043E-01
3.500000000E+00 9.999631818E-01 2.733442965E-06 3.542405642E-01
3.600000000E+00 9.999651884E-01 2.521769060E-06 3.444005485E-01
3.700000000E+00 9.999669848E-01 2.217047600E-06 3.350924256E-01
3.800000000E+00 9.999686671E-01 2.009474498E-06 3.262742038E-01
3.900000000E+00 9.999702533E-01 1.907745677E-06 3.179081986E-01
4.000000000E+00 9.999717207E-01 1.644917926E-06 3.099604936E-01
4.100000000E+00 9.999730830E-01 1.526234581E-06 3.024004816E-01
4.200000000E+00 9.999743557E-01 1.364270278E-06 2.952004701E-01
4.300000000E+00 9.999755384E-01 1.245848266E-06 2.883353429E-01
4.400000000E+00 9.999766389E-01 1.171764295E-06 2.817822670E-01
4.500000000E+00 9.999776755E-01 1.046405834E-06 2.755204388E-01
4.600000000E+00 9.999786410E-01 9.610060746E-07 2.695308640E-01
4.700000000E+00 9.999795419E-01 9.080722693E-07 2.637961648E-01
4.800000000E+00 9.999803958E-01 8.164876586E-07 2.583004114E-01
4.900000000E+00 9.999811935E-01 7.540511673E-07 2.530289744E-01
5.000000000E+00 9.999819410E-01 7.095482270E-07 2.479683949E-01
5.100000000E+00 9.999826423E-01 6.819956045E-07 2.431062695E-01
5.200000000E+00 9.999833171E-01 6.004356586E-07 2.384311490E-01
5.300000000E+00 9.999839455E-01 5.584669533E-07 2.339324480E-01
5.400000000E+00 9.999845346E-01 5.379745103E-07 2.296003657E-01
5.500000000E+00 9.999851020E-01 4.841458185E-07 2.254258136E-01
5.600000000E+00 9.999856339E-01 4.515905865E-07 2.214003526E-01
5.700000000E+00 9.999861362E-01 4.270100122E-07 2.175161359E-01
5.800000000E+00 9.999866101E-01 4.124124643E-07 2.137658577E-01
5.900000000E+00 9.999870700E-01 3.696180086E-07 2.101427076E-01
6.000000000E+00 9.999875012E-01 3.463375417E-07 2.066403291E-01
6.100000000E+00 9.999879094E-01 3.297570735E-07 2.032527827E-01
6.200000000E+00 9.999882963E-01 3.192055334E-07 1.999745120E-01
6.300000000E+00 9.999886734E-01 2.872370723E-07 1.968003134E-01
6.400000000E+00 9.999890277E-01 2.702689491E-07 1.937253085E-01
6.500000000E+00 9.999893647E-01 2.568690954E-07 1.907449192E-01
6.600000000E+00 9.999896845E-01 2.491441525E-07 1.878548446E-01
6.700000000E+00 9.999899965E-01 2.267927876E-07 1.850510410E-01
6.800000000E+00 9.999902911E-01 2.142234082E-07 1.823297021E-01
6.900000000E+00 9.999905729E-01 2.024495834E-07 1.796872427E-01
7.000000000E+00 9.999908406E-01 1.959079014E-07 1.771202821E-01
7.100000000E+00 9.999910968E-01 1.904282319E-07 1.746256302E-01
7.200000000E+00 9.999913484E-01 1.720923519E-07 1.722002742E-01
7.300000000E+00 9.999915858E-01 1.631812114E-07 1.698413664E-01
7.400000000E+00 9.999918134E-01 1.550651424E-07 1.675462128E-01
7.500000000E+00 9.999920302E-01 1.509576391E-07 1.653122633E-01
7.600000000E+00 9.999922386E-01 1.470112050E-07 1.631371019E-01
7.700000000E+00 9.999924439E-01 1.329929630E-07 1.610184383E-01
7.800000000E+00 9.999926379E-01 1.265262399E-07 1.589540993E-01
7.900000000E+00 9.999928245E-01 1.204182307E-07 1.569420221E-01
8.000000000E+00 9.999930028E-01 1.173670177E-07 1.549802468E-01
8.100000000E+00 9.999931745E-01 1.144869552E-07 1.530669104E-01
8.200000000E+00 9.999933438E-01 1.041540453E-07 1.512002408E-01
8.300000000E+00 9.999935044E-01 9.930181962E-08 1.493785512E-01
8.400000000E+00 9.999936592E-01 9.470455987E-08 1.476002351E-01
8.500000000E+00 9.999938081E-01 9.150183403E-08 1.458637617E-01
8.600000000E+00 9.999939512E-01 8.938625621E-08 1.441676715E-01
8.700000000E+00 9.999940895E-01 8.734320926E-08 1.425105718E-01
8.800000000E+00 9.999942264E-01 7.889268609E-08 1.408911335E-01
8.900000000E+00 9.999943564E-01 7.543336780E-08 1.393080870E-01
9.000000000E+00 9.999944819E-01 7.214432806E-08 1.377602194E-01
9.100000000E+00 9.999946028E-01 7.009571445E-08 1.362463708E-01
9.200000000E+00 9.999947195E-01 6.858017620E-08 1.347654320E-01
9.300000000E+00 9.999948324E-01 6.711326297E-08 1.333163414E-01
9.400000000E+00 9.999949449E-01 6.061772094E-08 1.318980824E-01
9.500000000E+00 9.999950515E-01 5.807116532E-08 1.305096815E-01
9.600000000E+00 9.999951548E-01 5.564306370E-08 1.291502057E-01
9.700000000E+00 9.999952546E-01 5.383979015E-08 1.278187603E-01
9.800000000E+00 9.999953509E-01 5.274662490E-08 1.265144872E-01
9.900000000E+00 9.999954444E-01 5.168641828E-08 1.252365631E-01
1.000000000E+01 9.999955373E-01 4.722352208E-08 1.239841975E-01
1.010000000E+01 9.999956259E-01 4.535711929E-08 1.227566311E-01
1.020000000E+01 9.999957118E-01 4.357246518E-08 1.215531348E-01
1.030000000E+01 9.999957953E-01 4.186536244E-08 1.203730072E-01
1.040000000E+01 9.999958759E-01 4.086782079E-08 1.192155745E-01
1.050000000E+01 9.999959540E-01 4.009309294E-08 1.180801881E-01
1.060000000E+01 9.999960300E-01 3.934018776E-08 1.169662240E-01
1.070000000E+01 9.999961058E-01 3.590425111E-08 1.158730817E-01
1.080000000E+01 9.999961781E-01 3.456873282E-08 1.148001828E-01
1.090000000E+01 9.999962484E-01 3.328809133E-08 1.137469701E-01
1.100000000E+01 9.999963167E-01 3.205968422E-08 1.127129068E-01
1.110000000E+01 9.999963829E-01 3.129862862E-08 1.116974752E-01
1.120000000E+01 9.999964472E-01 3.074221964E-08 1.107001763E-01
1.130000000E+01 9.999965098E-01 3.020051713E-08 1.097205287E-01
1.140000000E+01 9.999965708E-01 2.967300732E-08 1.087580679E-01
1.150000000E+01 9.999966320E-01 2.682149910E-08 1.078123456E-01
1.160000000E+01 9.999966902E-01 2.589558645E-08 1.068829288E-01
1.170000000E+01 9.999967469E-01 2.500509623E-08 1.059693995E-01
1.180000000E+01 9.999968021E-01 2.416230268E-08 1.050713538E-01
1.190000000E+01 9.999968556E-01 2.375791981E-08 1.041884012E-01
1.200000000E+01 9.999969078E-01 2.336360434E-08 1.033201645E-01
1.210000000E+01 9.999969587E-01 2.297902483E-08 1.024662789E-01
1.220000000E+01 9.999970096E-01 2.112260691E-08 1.016263914E-01
1.230000000E+01 9.999970583E-01 2.043392080E-08 1.008001605E-01
1.240000000E+01 9.999971059E-01 1.977011423E-08 9.998725601E-02
1.250000000E+01 9.999971523E-01 1.913013230E-08 9.918735797E-02
1.260000000E+01 9.999971975E-01 1.851297208E-08 9.840015671E-02
1.270000000E+01 9.999972415E-01 1.819890443E-08 9.762535233E-02
1.280000000E+01 9.999972845E-01 1.791565732E-08 9.686265426E-02
1.290000000E+01 9.999973264E-01 1.763897179E-08 9.611178098E-02
1.300000000E+01 9.999973674E-01 1.736864672E-08 9.537245958E-02
1.310000000E+01 9.999974085E-01 1.583327903E-08 9.464442554E-02
1.320000000E+01 9.999974479E-01 1.535137640E-08 9.392742232E-02
1.330000000E+01 9.999974863E-01 1.488572052E-08 9.322120110E-02
1.340000000E+01 9.999975239E-01 1.443566832E-08 9.252552049E-02
1.350000000E+01 9.999975606E-01 1.405238282E-08 9.184014627E-02
1.360000000E+01 9.999975963E-01 1.384648989E-08 9.116485107E-02
1.370000000E+01 9.999976313E-01 1.364508908E-08 9.049941420E-02
1.380000000E+01 9.999976655E-01 1.344805067E-08 8.984362135E-02
1.390000000E+01 9.999976990E-01 1.325524957E-08 8.919726436E-02
1.400000000E+01 9.999977326E-01 1.210165152E-08 8.856014104E-02
1.410000000E+01 9.999977648E-01 1.175691159E-08 8.793205493E-02
1.420000000E+01 9.999977964E-01 1.142306018E-08 8.731281511E-02
1.430000000E+01 9.999978272E-01 1.109969329E-08 8.670223598E-02
1.440000000E+01 9.999978574E-01 1.078642434E-08 8.610013712E-02
1.450000000E+01 9.999978869E-01 1.062766334E-08 8.550634307E-02
1.460000000E+01 9.999979158E-01 1.048257748E-08 8.492068319E-02
1.470000000E+01 9.999979440E-01 1.034044248E-08 8.434299147E-02
1.480000000E+01 9.999979717E-01 1.020117885E-08 8.377310639E-02
1.490000000E+01 9.999979995E-01 9.407555506E-09 8.321087078E-02
1.500000000E+01 9.999980262E-01 9.156288783E-09 8.265613164E-02
1.510000000E+01 9.999980524E-01 8.912481026E-09 8.210874004E-02
1.520000000E+01 9.999980780E-01 8.675871880E-09 8.156855096E-02
1.530000000E+01 9.999981032E-01 8.446211569E-09 8.103542318E-02
1.540000000E+01 9.999981279E-01 8.223260396E-09 8.050921913E-02
1.550000000E+01 9.999981519E-01 8.115531127E-09 7.998980481E-02
1.560000000E+01 9.999981756E-01 8.011819335E-09 7.947704965E-02
1.570000000E+01 9.999981987E-01 7.910082979E-09 7.897082641E-02
1.580000000E+01 9.999982215E-01 7.810272205E-09 7.847101105E-02
1.590000000E+01 9.999982438E-01 7.712338726E-09 7.797748268E-02
1.600000000E+01 9.999982662E-01 7.053392882E-09 7.749012341E-02
1.610000000E+01 9.999982878E-01 6.877156379E-09 7.700881830E-02
1.620000000E+01 9.999983090E-01 6.705804327E-09 7.653345522E-02
1.630000000E+01 9.999983297E-01 6.539177575E-09 7.606392482E-02
1.640000000E+01 9.999983501E-01 6.377123008E-09 7.560012040E-02
1.650000000E+01 9.999983701E-01 6.249044850E-09 7.514193785E-02
1.660000000E+01 9.999983897E-01 6.173981929E-09 7.468927558E-02
1.670000000E+01 9.999984089E-01 6.100263403E-09 7.424203441E-02
1.680000000E+01 9.999984278E-01 6.027857357E-09 7.380011753E-02
1.690000000E+01 9.999984464E-01 5.956732819E-09 7.336343045E-02
1.700000000E+01 9.999984646E-01 5.886859724E-09 7.293188086E-02
1.710000000E+01 9.999984829E-01 5.390437386E-09 7.250537863E-02
1.720000000E+01 9.999985006E-01 5.264390213E-09 7.208383573E-02
1.730000000E+01 9.999985180E-01 5.141614998E-09 7.166716616E-02
1.740000000E+01 9.999985350E-01 5.022011844E-09 7.125528590E-02
1.750000000E+01 9.999985518E-01 4.905484400E-09 7.084811283E-02
1.760000000E+01 9.999985682E-01 4.792578031E-09 7.044556674E-02
1.770000000E+01 9.999985844E-01 4.738577582E-09 7.004756919E-02
1.780000000E+01 9.999986002E-01 4.685484695E-09 6.965404352E-02
1.790000000E+01 9.999986158E-01 4.633279145E-09 6.926491478E-02
1.800000000E+01 9.999986312E-01 4.581941268E-09 6.888010970E-02
1.810000000E+01 9.999986463E-01 4.531451942E-09 6.849955661E-02
1.820000000E+01 9.999986614E-01 4.189809928E-09 6.812318542E-02
1.830000000E+01 9.999986761E-01 4.097940751E-09 6.775092757E-02
1.840000000E+01 9.999986905E-01 4.008312569E-09 6.738271601E-02
1.850000000E+01 9.999987046E-01 3.920861034E-09 6.701848511E-02
1.860000000E+01 9.999987186E-01 3.835523950E-09 6.665817068E-02
1.870000000E+01 9.999987323E-01 3.752241193E-09 6.630170987E-02
1.880000000E+01 9.999987458E-01 3.670954628E-09 6.594904120E-02
1.890000000E+01 9.999987590E-01 3.626504739E-09 6.560010448E-02
1.900000000E+01 9.999987721E-01 3.588431463E-09 6.525484077E-02
1.910000000E+01 9.999987849E-01 3.550954628E-09 6.491319239E-02
1.920000000E+01 9.999987975E-01 3.514061843E-09 6.457510284E-02
1.930000000E+01 9.999988099E-01 3.477741035E-09 6.424051682E-02
1.940000000E+01 9.999988222E-01 3.441980439E-09 6.390938013E-02
1.950000000E+01 9.999988345E-01 3.170079281E-09 6.358163972E-02
1.960000000E+01 9.999988464E-01 3.105032429E-09 6.325724360E-02
1.970000000E+01 9.999988581E-01 3.041469044E-09 6.293614084E-02
1.980000000E+01 9.999988697E-01 2.979349299E-09 6.261828154E-02
1.990000000E+01 9.999988810E-01 2.918634613E-09 6.230361681E-02
2.000000000E+01 9.999988922E-01 2.859287608E-09 6.199209873E-02
2.010000000E+01 9.999989033E-01 2.801272063E-09 6.168368033E-02
2.020000000E+01 9.999989141E-01 2.770400994E-09 6.137831557E-02
2.030000000E+01 9.999989248E-01 2.743173631E-09 6.107595934E-02
2.040000000E+01 9.999989353E-01 2.716345688E-09 6.077656738E-02
2.050000000E+01 9.999989456E-01 2.689909391E-09 6.048009632E-02
2.060000000E+01 9.999989559E-01 2.663857153E-09 6.018650362E-02
2.070000000E+01 9.999989659E-01 2.638181571E-09 5.989574756E-02
2.080000000E+01 9.999989761E-01 2.442135437E-09 5.960778724E-02
2.090000000E+01 9.999989859E-01 2.395204610E-09 5.932258252E-02
2.100000000E+01 9.999989955E-01 2.349277608E-09 5.904009403E-02
2.110000000E+01 9.999990050E-01 2.304329140E-09 5.876028316E-02
2.120000000E+01 9.999990144E-01 2.260334660E-09 5.848311201E-02
2.130000000E+01 9.999990237E-01 2.217270338E-09 5.820854341E-02
2.140000000E+01 9.999990328E-01 2.175113038E-09 5.793654087E-02
2.150000000E+01 9.999990418E-01 2.134069677E-09 5.766706859E-02
2.160000000E+01 9.999990507E-01 2.114355513E-09 5.740009142E-02
2.170000000E+01 9.999990594E-01 2.094913266E-09 5.713557487E-02
2.180000000E+01 9.999990680E-01 2.075737960E-09 5.687348507E-02
2.190000000E+01 9.999990765E-01 2.056824729E-09 5.661378879E-02
2.200000000E+01 9.999990849E-01 2.038168818E-09 5.635645339E-02
2.210000000E+01 9.999990932E-01 2.019765582E-09 5.610144681E-02
2.220000000E+01 9.999991013E-01 2.001610478E-09 5.584873759E-02
2.230000000E+01 9.999991095E-01 1.843045361E-09 5.559829482E-02
2.240000000E+01 9.999991175E-01 1.809925027E-09 5.535008815E-02
2.250000000E+01 9.999991253E-01 1.777466518E-09 5.510408776E-02
2.260000000E+01 9.999991331E-01 1.745654257E-09 5.486026436E-02
2.270000000E+01 9.999991407E-01 1.714473095E-09 5.461858919E-02
2.280000000E+01 9.999991483E-01 1.683908297E-09 5.437903397E-02
2.290000000E+01 9.999991557E-01 1.653945527E-09 5.414157094E-02
2.300000000E+01 9.999991630E-01 1.627368024E-09 5.390617281E-02
2.310000000E+01 9.999991703E-01 1.613308754E-09 5.367281275E-02
2.320000000E+01 9.999991774E-01 1.599430894E-09 5.344146442E-02
2.330000000E+01 9.999991844E-01 1.585731335E-09 5.321210191E-02
2.340000000E+01 9.999991914E-01 1.572207036E-09 5.298469977E-02
2.350000000E+01 9.999991983E-01 1.558855019E-09 5.275923296E-02
2.360000000E+01 9.999992051E-01 1.545672372E-09 5.253567689E-02
2.370000000E+01 9.999992117E-01 1.532656242E-09 5.231400737E-02
2.380000000E+01 9.999992185E-01 1.416916059E-09 5.209420061E-02
2.390000000E+01 9.999992250E-01 1.393100363E-09 5.187623325E-02
2.400000000E+01 9.999992315E-01 1.369730602E-09 5.166008227E-02
2.410000000E+01 9.999992379E-01 1.346796934E-09 5.144572509E-02
2.420000000E+01 9.999992442E-01 1.324289772E-09 5.123313945E-02
2.430000000E+01 9.999992504E-01 1.302199772E-09 5.102230348E-02
2.440000000E+01 9.999992565E-01 1.280517832E-09 5.081319568E-02
2.450000000E+01 9.999992626E-01 1.259235079E-09 5.060579488E-02
2.460000000E+01 9.999992686E-01 1.241452336E-09 5.040008027E-02
2.470000000E+01 9.999992745E-01 1.231420439E-09 5.019603136E-02
2.480000000E+01 9.999992804E-01 1.221509651E-09 4.999362801E-02
2.490000000E+01 9.999992861E-01 1.211718030E-09 4.979285038E-02
2.500000000E+01 9.999992918E-01 1.202043673E-09 4.959367898E-02
2.510000000E+01 9.999992975E-01 1.192484716E-09 4.939609460E-02
2.520000000E+01 9.999993030E-01 1.183039329E-09 4.920007836E-02
2.530000000E+01 9.999993085E-01 1.173705722E-09 4.900561164E-02
2.540000000E+01 9.999993141E-01 1.089354697E-09 4.881267616E-02
2.550000000E+01 9.999993194E-01 1.072165872E-09 4.862125391E-02
2.560000000E+01 9.999993248E-01 1.055278994E-09 4.843132713E-02
2.570000000E+01 9.999993300E-01 1.038687812E-09 4.824287839E-02
2.580000000E+01 9.999993352E-01 1.022386225E-09 4.805589049E-02
2.590000000E+01 9.999993403E-01 1.006368279E-09 4.787034651E-02
2.600000000E+01 9.999993454E-01 9.906281630E-10 4.768622979E-02
2.610000000E+01 9.999993504E-01 9.751602039E-10 4.750352393E-02
2.620000000E+01 9.999993554E-01 9.599588648E-10 4.732221277E-02
2.630000000E+01 9.999993603E-01 9.478993858E-10 4.714228040E-02
2.640000000E+01 9.999993651E-01 9.407319303E-10 4.696371116E-02
2.650000000E+01 9.999993699E-01 9.336454627E-10 4.678648961E-02
2.660000000E+01 9.999993746E-01 9.266387672E-10 4.661060055E-02
2.670000000E+01 9.999993793E-01 9.197106512E-10 4.643602901E-02
2.680000000E+01 9.999993839E-01 9.128599440E-10 4.626276025E-02
2.690000000E+01 9.999993885E-01 9.060854965E-10 4.609077972E-02
2.700000000E+01 9.999993930E-01 8.993861813E-10 4.592007313E-02
2.710000000E+01 9.999993975E-01 8.927608913E-10 4.575062637E-02
2.720000000E+01 9.999994020E-01 8.239773637E-10 4.558242554E-02
2.730000000E+01 9.999994064E-01 8.116145068E-10 4.541545694E-02
2.740000000E+01 9.999994107E-01 7.994557715E-10 4.524970710E-02
2.750000000E+01 9.999994150E-01 7.874971958E-10 4.508516271E-02
2.760000000E+01 9.999994192E-01 7.757349074E-10 4.492181067E-02
2.770000000E+01 9.999994234E-01 7.641651213E-10 4.475963807E-02
2.780000000E+01 9.999994276E-01 7.527841375E-10 4.459863218E-02
2.790000000E+01 9.999994317E-01 7.415883390E-10 4.443878045E-02
2.800000000E+01 9.999994357E-01 7.305741894E-10 4.428007052E-02
2.810000000E+01 9.999994398E-01 7.210820385E-10 4.412249020E-02
2.820000000E+01 9.999994437E-01 7.159770489E-10 4.396602747E-02
2.830000000E+01 9.999994477E-01 7.109260802E-10 4.381067048E-02
2.840000000E+01 9.999994515E-01 7.059283728E-10 4.365640756E-02
2.850000000E+01 9.999994554E-01 7.009831805E-10 4.350322718E-02
2.860000000E+01 9.999994592E-01 6.960897702E-10 4.335111799E-02
2.870000000E+01 9.999994629E-01 6.912474212E-10 4.320006880E-02
2.880000000E+01 9.999994667E-01 6.864554258E-10 4.305006856E-02
2.890000000E+01 9.999994704E-01 6.817130882E-10 4.290110639E-02
2.900000000E+01 9.999994740E-01 6.770197246E-10 4.275317154E-02
2.910000000E+01 9.999994777E-01 6.236111393E-10 4.260625342E-02
2.920000000E+01 9.999994813E-01 6.147990895E-10 4.246034160E-02
2.930000000E+01 9.999994848E-01 6.061234405E-10 4.231542575E-02
2.940000000E+01 9.999994883E-01 5.975817125E-10 4.217149573E-02
2.950000000E+01 9.999994918E-01 5.891714785E-10 4.202854151E-02
2.960000000E+01 9.999994952E-01 5.808903623E-10 4.188655320E-02
2.970000000E+01 9.999994986E-01 5.727360381E-10 4.174552103E-02
2.980000000E+01 9.999995020E-01 5.647062287E-10 4.160543539E-02
2.990000000E+01 9.999995053E-01 5.567987046E-10 4.146628678E-02
3.000000000E+01 9.999995086E-01 5.490112828E-10 4.132806582E-02
3.010000000E+01 9.999995119E-01 5.448394884E-10 4.119076328E-02
3.020000000E+01 9.999995151E-01 5.412372537E-10 4.105437002E-02
3.030000000E+01 9.999995183E-01 5.376706258E-10 4.091887705E-02
3.040000000E+01 9.999995214E-01 5.341391370E-10 4.078427548E-02
3.050000000E+01 9.999995246E-01 5.306423272E-10 4.065055654E-02
3.060000000E+01 9.999995277E-01 5.271797438E-10 4.051771159E-02
3.070000000E+01 9.999995308E-01 5.237509415E-10 4.038573207E-02
3.080000000E+01 9.999995338E-01 5.203554825E-10 4.025460956E-02
3.090000000E+01 9.999995368E-01 5.169929356E-10 4.012433575E-02
3.100000000E+01 9.999995398E-01 5.136628771E-10 3.999490241E-02
3.110000000E+01 9.999995428E-01 4.736606915E-10 3.986630143E-02
3.120000000E+01 9.999995457E-01 4.674015040E-10 3.973852483E-02
3.130000000E+01 9.999995486E-01 4.612330019E-10 3.961156468E-02
3.140000000E+01 9.999995515E-01 4.551536414E-10 3.948541320E-02
3.150000000E+01 9.999995544E-01 4.491619094E-10 3.936006269E-02
3.160000000E+01 9.999995572E-01 4.432563228E-10 3.923550552E-02
3.170000000E+01 9.999995600E-01 4.374354277E-10 3.911173421E-02
3.180000000E+01 9.999995627E-01 4.316977986E-10 3.898874134E-02
3.190000000E+01 9.999995655E-01 4.260420384E-10 3.886651958E-02
3.200000000E+01 9.999995682E-01 4.204667769E-10 3.874506171E-02
3.210000000E+01 9.999995709E-01 4.153438956E-10 3.862436058E-02
3.220000000E+01 9.999995736E-01 4.127681257E-10 3.850440915E-02
3.230000000E+01 9.999995762E-01 4.102162423E-10 3.838520045E-02
3.240000000E+01 9.999995788E-01 4.076879510E-10 3.826672761E-02
3.250000000E+01 9.999995814E-01 4.051829618E-10 3.814898383E-02
3.260000000E+01 9.999995840E-01 4.027009894E-10 3.803196241E-02
3.270000000E+01 9.999995865E-01 4.002417524E-10 3.791565672E-02
