# 11/03/2022 
# Density retrieved from www.chemicool.com/densities.html 
# Includes the real (n) and complex (k) part of the  refractive index. 
# Elements, SiO2  
# Nominal density, g cm-3 =  [2.65] 
#    E [keV]      n       k    Wavelength [nm] 
2.000000000E+00 9.998718811E-01 2.262651173E-05 6.199209873E-01
2.100000000E+00 9.998791222E-01 1.853748108E-05 5.904009403E-01
2.200000000E+00 9.998879799E-01 1.538070792E-05 5.635645339E-01
2.300000000E+00 9.998965627E-01 1.303905620E-05 5.390617281E-01
2.400000000E+00 9.999044561E-01 1.129409761E-05 5.166008227E-01
2.500000000E+00 9.999114564E-01 9.573758204E-06 4.959367898E-01
2.600000000E+00 9.999179916E-01 8.604817790E-06 4.768622979E-01
2.700000000E+00 9.999236106E-01 7.221496077E-06 4.592007313E-01
2.800000000E+00 9.999289372E-01 6.643423337E-06 4.428007052E-01
2.900000000E+00 9.999335319E-01 5.561891330E-06 4.275317154E-01
3.000000000E+00 9.999378840E-01 5.182274942E-06 4.132806582E-01
3.100000000E+00 9.999416886E-01 4.341882008E-06 3.999490241E-01
3.200000000E+00 9.999452730E-01 4.063152758E-06 3.874506171E-01
3.300000000E+00 9.999484777E-01 3.433774139E-06 3.757096893E-01
3.400000000E+00 9.999514584E-01 3.200621301E-06 3.646594043E-01
3.500000000E+00 9.999541705E-01 2.753379396E-06 3.542405642E-01
3.600000000E+00 9.999566759E-01 2.539117411E-06 3.444005485E-01
3.700000000E+00 9.999589437E-01 2.230261150E-06 3.350924256E-01
3.800000000E+00 9.999610532E-01 2.020259338E-06 3.262742038E-01
3.900000000E+00 9.999630248E-01 1.917984539E-06 3.179081986E-01
4.000000000E+00 9.999648618E-01 1.652314654E-06 3.099604936E-01
4.100000000E+00 9.999665576E-01 1.532728658E-06 3.024004816E-01
4.200000000E+00 9.999681439E-01 1.369319487E-06 2.952004701E-01
4.300000000E+00 9.999696162E-01 1.249961372E-06 2.883353429E-01
4.400000000E+00 9.999709842E-01 1.175463848E-06 2.817822670E-01
4.500000000E+00 9.999722745E-01 1.049097403E-06 2.755204388E-01
4.600000000E+00 9.999734752E-01 9.631194899E-07 2.695308640E-01
4.700000000E+00 9.999745944E-01 9.099539201E-07 2.637961648E-01
4.800000000E+00 9.999756562E-01 8.177323713E-07 2.583004114E-01
4.900000000E+00 9.999766474E-01 7.549413363E-07 2.530289744E-01
5.000000000E+00 9.999775760E-01 7.102518714E-07 2.479683949E-01
5.100000000E+00 9.999784467E-01 6.826719256E-07 2.431062695E-01
5.200000000E+00 9.999792852E-01 6.005757750E-07 2.384311490E-01
5.300000000E+00 9.999800657E-01 5.584225258E-07 2.339324480E-01
5.400000000E+00 9.999807971E-01 5.379317129E-07 2.296003657E-01
5.500000000E+00 9.999815016E-01 4.838278724E-07 2.254258136E-01
5.600000000E+00 9.999821619E-01 4.511600342E-07 2.214003526E-01
5.700000000E+00 9.999827855E-01 4.265231465E-07 2.175161359E-01
5.800000000E+00 9.999833740E-01 4.119422423E-07 2.137658577E-01
5.900000000E+00 9.999839447E-01 3.689638112E-07 2.101427076E-01
6.000000000E+00 9.999844799E-01 3.456285827E-07 2.066403291E-01
6.100000000E+00 9.999849867E-01 3.290344465E-07 2.032527827E-01
6.200000000E+00 9.999854671E-01 3.185060290E-07 1.999745120E-01
6.300000000E+00 9.999859348E-01 2.864325630E-07 1.968003134E-01
6.400000000E+00 9.999863745E-01 2.694426515E-07 1.937253085E-01
6.500000000E+00 9.999867929E-01 2.560381866E-07 1.907449192E-01
6.600000000E+00 9.999871901E-01 2.483382320E-07 1.878548446E-01
6.700000000E+00 9.999875770E-01 2.259407915E-07 1.850510410E-01
6.800000000E+00 9.999879426E-01 2.133684914E-07 1.823297021E-01
6.900000000E+00 9.999882923E-01 2.015930543E-07 1.796872427E-01
7.000000000E+00 9.999886248E-01 1.950719373E-07 1.771202821E-01
7.100000000E+00 9.999889430E-01 1.896156502E-07 1.746256302E-01
7.200000000E+00 9.999892549E-01 1.712553732E-07 1.722002742E-01
7.300000000E+00 9.999895495E-01 1.623518762E-07 1.698413664E-01
7.400000000E+00 9.999898320E-01 1.542447041E-07 1.675462128E-01
7.500000000E+00 9.999901013E-01 1.501589332E-07 1.653122633E-01
7.600000000E+00 9.999903601E-01 1.462333794E-07 1.631371019E-01
7.700000000E+00 9.999906146E-01 1.322096173E-07 1.610184383E-01
7.800000000E+00 9.999908554E-01 1.257551458E-07 1.589540993E-01
7.900000000E+00 9.999910870E-01 1.196592128E-07 1.569420221E-01
8.000000000E+00 9.999913085E-01 1.166267076E-07 1.549802468E-01
8.100000000E+00 9.999915218E-01 1.137648116E-07 1.530669104E-01
8.200000000E+00 9.999917316E-01 1.034641834E-07 1.512002408E-01
8.300000000E+00 9.999919310E-01 9.863309019E-08 1.493785512E-01
8.400000000E+00 9.999921232E-01 9.405605094E-08 1.476002351E-01
8.500000000E+00 9.999923080E-01 9.087042504E-08 1.458637617E-01
8.600000000E+00 9.999924858E-01 8.876944577E-08 1.441676715E-01
8.700000000E+00 9.999926576E-01 8.674049688E-08 1.425105718E-01
8.800000000E+00 9.999928273E-01 7.832407295E-08 1.408911335E-01
8.900000000E+00 9.999929886E-01 7.488282465E-08 1.393080870E-01
9.000000000E+00 9.999931445E-01 7.161108008E-08 1.377602194E-01
9.100000000E+00 9.999932946E-01 6.957561342E-08 1.362463708E-01
9.200000000E+00 9.999934396E-01 6.807132027E-08 1.347654320E-01
9.300000000E+00 9.999935799E-01 6.661529133E-08 1.333163414E-01
9.400000000E+00 9.999937191E-01 6.015226979E-08 1.318980824E-01
9.500000000E+00 9.999938515E-01 5.762099298E-08 1.305096815E-01
9.600000000E+00 9.999939797E-01 5.520752503E-08 1.291502057E-01
9.700000000E+00 9.999941037E-01 5.341605224E-08 1.278187603E-01
9.800000000E+00 9.999942234E-01 5.233149058E-08 1.265144872E-01
9.900000000E+00 9.999943395E-01 5.127962815E-08 1.252365631E-01
1.000000000E+01 9.999944546E-01 4.683774320E-08 1.239841975E-01
1.010000000E+01 9.999945645E-01 4.498246162E-08 1.227566311E-01
1.020000000E+01 9.999946712E-01 4.320850125E-08 1.215531348E-01
1.030000000E+01 9.999947748E-01 4.151168516E-08 1.203730072E-01
1.040000000E+01 9.999948750E-01 4.052165059E-08 1.192155745E-01
1.050000000E+01 9.999949721E-01 3.975348506E-08 1.180801881E-01
1.060000000E+01 9.999950666E-01 3.900695735E-08 1.169662240E-01
1.070000000E+01 9.999951604E-01 3.558603116E-08 1.158730817E-01
1.080000000E+01 9.999952502E-01 3.425857377E-08 1.148001828E-01
1.090000000E+01 9.999953374E-01 3.298571275E-08 1.137469701E-01
1.100000000E+01 9.999954223E-01 3.176481797E-08 1.127129068E-01
1.110000000E+01 9.999955046E-01 3.100965743E-08 1.116974752E-01
1.120000000E+01 9.999955845E-01 3.045838562E-08 1.107001763E-01
1.130000000E+01 9.999956623E-01 2.992168448E-08 1.097205287E-01
1.140000000E+01 9.999957380E-01 2.939904503E-08 1.087580679E-01
1.150000000E+01 9.999958138E-01 2.656164148E-08 1.078123456E-01
1.160000000E+01 9.999958861E-01 2.564205369E-08 1.068829288E-01
1.170000000E+01 9.999959565E-01 2.475767966E-08 1.059693995E-01
1.180000000E+01 9.999960250E-01 2.392074674E-08 1.050713538E-01
1.190000000E+01 9.999960916E-01 2.352040659E-08 1.041884012E-01
1.200000000E+01 9.999961564E-01 2.313003317E-08 1.033201645E-01
1.210000000E+01 9.999962197E-01 2.274929839E-08 1.024662789E-01
1.220000000E+01 9.999962827E-01 2.090379004E-08 1.016263914E-01
1.230000000E+01 9.999963433E-01 2.022032272E-08 1.008001605E-01
1.240000000E+01 9.999964023E-01 1.956156915E-08 9.998725601E-02
1.250000000E+01 9.999964599E-01 1.892648098E-08 9.918735797E-02
1.260000000E+01 9.999965162E-01 1.831406151E-08 9.840015671E-02
1.270000000E+01 9.999965708E-01 1.800322839E-08 9.762535233E-02
1.280000000E+01 9.999966242E-01 1.772302678E-08 9.686265426E-02
1.290000000E+01 9.999966763E-01 1.744931619E-08 9.611178098E-02
1.300000000E+01 9.999967273E-01 1.718189768E-08 9.537245958E-02
1.310000000E+01 9.999967782E-01 1.565648498E-08 9.464442554E-02
1.320000000E+01 9.999968271E-01 1.517861045E-08 9.392742232E-02
1.330000000E+01 9.999968749E-01 1.471686183E-08 9.322120110E-02
1.340000000E+01 9.999969215E-01 1.427060052E-08 9.252552049E-02
1.350000000E+01 9.999969671E-01 1.389070409E-08 9.184014627E-02
1.360000000E+01 9.999970116E-01 1.368718004E-08 9.116485107E-02
1.370000000E+01 9.999970550E-01 1.348809644E-08 9.049941420E-02
1.380000000E+01 9.999970976E-01 1.329332504E-08 8.984362135E-02
1.390000000E+01 9.999971392E-01 1.310274220E-08 8.919726436E-02
1.400000000E+01 9.999971809E-01 1.195748653E-08 8.856014104E-02
1.410000000E+01 9.999972209E-01 1.161589517E-08 8.793205493E-02
1.420000000E+01 9.999972600E-01 1.128510282E-08 8.731281511E-02
1.430000000E+01 9.999972984E-01 1.096470863E-08 8.670223598E-02
1.440000000E+01 9.999973359E-01 1.065432901E-08 8.610013712E-02
1.450000000E+01 9.999973726E-01 1.049745085E-08 8.550634307E-02
1.460000000E+01 9.999974084E-01 1.035414263E-08 8.492068319E-02
1.470000000E+01 9.999974436E-01 1.021374910E-08 8.434299147E-02
1.480000000E+01 9.999974780E-01 1.007619175E-08 8.377310639E-02
1.490000000E+01 9.999975124E-01 9.288934973E-09 8.321087078E-02
1.500000000E+01 9.999975456E-01 9.040146485E-09 8.265613164E-02
1.510000000E+01 9.999975782E-01 8.798750146E-09 8.210874004E-02
1.520000000E+01 9.999976100E-01 8.564487820E-09 8.156855096E-02
1.530000000E+01 9.999976413E-01 8.337111857E-09 8.103542318E-02
1.540000000E+01 9.999976720E-01 8.116384604E-09 8.050921913E-02
1.550000000E+01 9.999977019E-01 8.010043967E-09 7.998980481E-02
1.560000000E+01 9.999977313E-01 7.907680239E-09 7.947704965E-02
1.570000000E+01 9.999977601E-01 7.807266270E-09 7.897082641E-02
1.580000000E+01 9.999977883E-01 7.708752856E-09 7.847101105E-02
1.590000000E+01 9.999978161E-01 7.612092334E-09 7.797748268E-02
1.600000000E+01 9.999978439E-01 6.958871575E-09 7.749012341E-02
1.610000000E+01 9.999978707E-01 6.784512479E-09 7.700881830E-02
1.620000000E+01 9.999978970E-01 6.614990204E-09 7.653345522E-02
1.630000000E+01 9.999979228E-01 6.450147081E-09 7.606392482E-02
1.640000000E+01 9.999979482E-01 6.289831421E-09 7.560012040E-02
1.650000000E+01 9.999979730E-01 6.163213817E-09 7.514193785E-02
1.660000000E+01 9.999979974E-01 6.089181890E-09 7.468927558E-02
1.670000000E+01 9.999980213E-01 6.016475892E-09 7.424203441E-02
1.680000000E+01 9.999980448E-01 5.945064348E-09 7.380011753E-02
1.690000000E+01 9.999980678E-01 5.874916710E-09 7.336343045E-02
1.700000000E+01 9.999980905E-01 5.806003327E-09 7.293188086E-02
1.710000000E+01 9.999981133E-01 5.314257386E-09 7.250537863E-02
1.720000000E+01 9.999981352E-01 5.189648098E-09 7.208383573E-02
1.730000000E+01 9.999981568E-01 5.068276371E-09 7.166716616E-02
1.740000000E+01 9.999981780E-01 4.950043313E-09 7.125528590E-02
1.750000000E+01 9.999981988E-01 4.834853545E-09 7.084811283E-02
1.760000000E+01 9.999982193E-01 4.723247798E-09 7.044556674E-02
1.770000000E+01 9.999982393E-01 4.670028529E-09 7.004756919E-02
1.780000000E+01 9.999982591E-01 4.617703692E-09 6.965404352E-02
1.790000000E+01 9.999982785E-01 4.566253356E-09 6.926491478E-02
1.800000000E+01 9.999982975E-01 4.515658141E-09 6.888010970E-02
1.810000000E+01 9.999983163E-01 4.465899203E-09 6.849955661E-02
1.820000000E+01 9.999983351E-01 4.127749012E-09 6.812318542E-02
1.830000000E+01 9.999983533E-01 4.036995119E-09 6.775092757E-02
1.840000000E+01 9.999983712E-01 3.948456989E-09 6.738271601E-02
1.850000000E+01 9.999983888E-01 3.862070971E-09 6.701848511E-02
1.860000000E+01 9.999984061E-01 3.777775542E-09 6.665817068E-02
1.870000000E+01 9.999984232E-01 3.695511229E-09 6.630170987E-02
1.880000000E+01 9.999984400E-01 3.615220529E-09 6.594904120E-02
1.890000000E+01 9.999984564E-01 3.571413064E-09 6.560010448E-02
1.900000000E+01 9.999984726E-01 3.533918173E-09 6.525484077E-02
1.910000000E+01 9.999984886E-01 3.497010665E-09 6.491319239E-02
1.920000000E+01 9.999985043E-01 3.460678333E-09 6.457510284E-02
1.930000000E+01 9.999985198E-01 3.424909288E-09 6.424051682E-02
1.940000000E+01 9.999985350E-01 3.389691945E-09 6.390938013E-02
1.950000000E+01 9.999985503E-01 3.120753541E-09 6.358163972E-02
1.960000000E+01 9.999985651E-01 3.056544987E-09 6.325724360E-02
1.970000000E+01 9.999985796E-01 2.993802083E-09 6.293614084E-02
1.980000000E+01 9.999985940E-01 2.932485465E-09 6.261828154E-02
1.990000000E+01 9.999986081E-01 2.872556999E-09 6.230361681E-02
2.000000000E+01 9.999986220E-01 2.813979739E-09 6.199209873E-02
2.010000000E+01 9.999986357E-01 2.756717885E-09 6.168368033E-02
2.020000000E+01 9.999986492E-01 2.726319723E-09 6.137831557E-02
2.030000000E+01 9.999986625E-01 2.699525588E-09 6.107595934E-02
2.040000000E+01 9.999986756E-01 2.673124518E-09 6.077656738E-02
2.050000000E+01 9.999986885E-01 2.647108863E-09 6.048009632E-02
2.060000000E+01 9.999987012E-01 2.621471156E-09 6.018650362E-02
2.070000000E+01 9.999987137E-01 2.596204111E-09 5.989574756E-02
2.080000000E+01 9.999987262E-01 2.402442018E-09 5.960778724E-02
2.090000000E+01 9.999987384E-01 2.356150359E-09 5.932258252E-02
2.100000000E+01 9.999987505E-01 2.310849725E-09 5.904009403E-02
2.110000000E+01 9.999987623E-01 2.266515137E-09 5.876028316E-02
2.120000000E+01 9.999987740E-01 2.223122350E-09 5.848311201E-02
2.130000000E+01 9.999987855E-01 2.180647828E-09 5.820854341E-02
2.140000000E+01 9.999987968E-01 2.139068721E-09 5.793654087E-02
2.150000000E+01 9.999988080E-01 2.098589697E-09 5.766706859E-02
2.160000000E+01 9.999988190E-01 2.079203291E-09 5.740009142E-02
2.170000000E+01 9.999988299E-01 2.060084282E-09 5.713557487E-02
2.180000000E+01 9.999988406E-01 2.041227775E-09 5.687348507E-02
2.190000000E+01 9.999988512E-01 2.022628985E-09 5.661378879E-02
2.200000000E+01 9.999988616E-01 2.004283239E-09 5.635645339E-02
2.210000000E+01 9.999988719E-01 1.986185966E-09 5.610144681E-02
2.220000000E+01 9.999988820E-01 1.968332700E-09 5.584873759E-02
2.230000000E+01 9.999988922E-01 1.811720597E-09 5.559829482E-02
2.240000000E+01 9.999989021E-01 1.779075867E-09 5.535008815E-02
2.250000000E+01 9.999989119E-01 1.747084031E-09 5.510408776E-02
2.260000000E+01 9.999989215E-01 1.715729717E-09 5.486026436E-02
2.270000000E+01 9.999989310E-01 1.684997973E-09 5.461858919E-02
2.280000000E+01 9.999989404E-01 1.654874256E-09 5.437903397E-02
2.290000000E+01 9.999989496E-01 1.625344419E-09 5.414157094E-02
2.300000000E+01 9.999989588E-01 1.599158964E-09 5.390617281E-02
2.310000000E+01 9.999989677E-01 1.585343401E-09 5.367281275E-02
2.320000000E+01 9.999989766E-01 1.571706102E-09 5.344146442E-02
2.330000000E+01 9.999989854E-01 1.558244013E-09 5.321210191E-02
2.340000000E+01 9.999989940E-01 1.544954146E-09 5.298469977E-02
2.350000000E+01 9.999990026E-01 1.531833576E-09 5.275923296E-02
2.360000000E+01 9.999990110E-01 1.518879439E-09 5.253567689E-02
2.370000000E+01 9.999990194E-01 1.506088932E-09 5.231400737E-02
2.380000000E+01 9.999990277E-01 1.391860428E-09 5.209420061E-02
2.390000000E+01 9.999990359E-01 1.368404083E-09 5.187623325E-02
2.400000000E+01 9.999990439E-01 1.345387325E-09 5.166008227E-02
2.410000000E+01 9.999990518E-01 1.322800450E-09 5.144572509E-02
2.420000000E+01 9.999990597E-01 1.300634000E-09 5.123313945E-02
2.430000000E+01 9.999990674E-01 1.278878764E-09 5.102230348E-02
2.440000000E+01 9.999990750E-01 1.257525763E-09 5.081319568E-02
2.450000000E+01 9.999990826E-01 1.236566248E-09 5.060579488E-02
2.460000000E+01 9.999990900E-01 1.219062209E-09 5.040008027E-02
2.470000000E+01 9.999990974E-01 1.209211242E-09 5.019603136E-02
2.480000000E+01 9.999991047E-01 1.199479199E-09 4.999362801E-02
2.490000000E+01 9.999991118E-01 1.189864174E-09 4.979285038E-02
2.500000000E+01 9.999991189E-01 1.180364298E-09 4.959367898E-02
2.510000000E+01 9.999991259E-01 1.170977741E-09 4.939609460E-02
2.520000000E+01 9.999991329E-01 1.161702706E-09 4.920007836E-02
2.530000000E+01 9.999991397E-01 1.152537435E-09 4.900561164E-02
2.540000000E+01 9.999991466E-01 1.069347691E-09 4.881267616E-02
2.550000000E+01 9.999991533E-01 1.052430183E-09 4.862125391E-02
2.560000000E+01 9.999991599E-01 1.035810114E-09 4.843132713E-02
2.570000000E+01 9.999991664E-01 1.019481321E-09 4.824287839E-02
2.580000000E+01 9.999991729E-01 1.003437793E-09 4.805589049E-02
2.590000000E+01 9.999991793E-01 9.876736621E-10 4.787034651E-02
2.600000000E+01 9.999991856E-01 9.721832013E-10 4.768622979E-02
2.610000000E+01 9.999991918E-01 9.569608209E-10 4.750352393E-02
2.620000000E+01 9.999991980E-01 9.420010640E-10 4.732221277E-02
2.630000000E+01 9.999992041E-01 9.301411003E-10 4.714228040E-02
2.640000000E+01 9.999992101E-01 9.231079225E-10 4.696371116E-02
2.650000000E+01 9.999992160E-01 9.161542153E-10 4.678648961E-02
2.660000000E+01 9.999992219E-01 9.092787858E-10 4.661060055E-02
2.670000000E+01 9.999992277E-01 9.024804636E-10 4.643602901E-02
2.680000000E+01 9.999992335E-01 8.957580999E-10 4.626276025E-02
2.690000000E+01 9.999992392E-01 8.891105674E-10 4.609077972E-02
2.700000000E+01 9.999992448E-01 8.825367595E-10 4.592007313E-02
2.710000000E+01 9.999992504E-01 8.760355900E-10 4.575062637E-02
2.720000000E+01 9.999992560E-01 8.082805087E-10 4.558242554E-02
2.730000000E+01 9.999992614E-01 7.961246696E-10 4.541545694E-02
2.740000000E+01 9.999992668E-01 7.841696853E-10 4.524970710E-02
2.750000000E+01 9.999992721E-01 7.724116557E-10 4.508516271E-02
2.760000000E+01 9.999992774E-01 7.608467692E-10 4.492181067E-02
2.770000000E+01 9.999992826E-01 7.494712999E-10 4.475963807E-02
2.780000000E+01 9.999992878E-01 7.382816058E-10 4.459863218E-02
2.790000000E+01 9.999992929E-01 7.272741265E-10 4.443878045E-02
2.800000000E+01 9.999992979E-01 7.164453810E-10 4.428007052E-02
2.810000000E+01 9.999993029E-01 7.071162160E-10 4.412249020E-02
2.820000000E+01 9.999993079E-01 7.021100992E-10 4.396602747E-02
2.830000000E+01 9.999993127E-01 6.971569570E-10 4.381067048E-02
2.840000000E+01 9.999993176E-01 6.922560446E-10 4.365640756E-02
2.850000000E+01 9.999993224E-01 6.874066301E-10 4.350322718E-02
2.860000000E+01 9.999993271E-01 6.826079947E-10 4.335111799E-02
2.870000000E+01 9.999993318E-01 6.778594317E-10 4.320006880E-02
2.880000000E+01 9.999993364E-01 6.731602470E-10 4.305006856E-02
2.890000000E+01 9.999993410E-01 6.685097584E-10 4.290110639E-02
2.900000000E+01 9.999993455E-01 6.639072953E-10 4.275317154E-02
2.910000000E+01 9.999993501E-01 6.113387605E-10 4.260625342E-02
2.920000000E+01 9.999993545E-01 6.026805828E-10 4.246034160E-02
2.930000000E+01 9.999993589E-01 5.941565205E-10 4.231542575E-02
2.940000000E+01 9.999993633E-01 5.857641345E-10 4.217149573E-02
2.950000000E+01 9.999993676E-01 5.775010374E-10 4.202854151E-02
2.960000000E+01 9.999993719E-01 5.693648924E-10 4.188655320E-02
2.970000000E+01 9.999993761E-01 5.613534116E-10 4.174552103E-02
2.980000000E+01 9.999993803E-01 5.534643553E-10 4.160543539E-02
2.990000000E+01 9.999993844E-01 5.456955307E-10 4.146628678E-02
3.000000000E+01 9.999993885E-01 5.380447906E-10 4.132806582E-02
3.010000000E+01 9.999993926E-01 5.339538937E-10 4.119076328E-02
3.020000000E+01 9.999993966E-01 5.304236297E-10 4.105437002E-02
3.030000000E+01 9.999994006E-01 5.269282611E-10 4.091887705E-02
3.040000000E+01 9.999994045E-01 5.234673295E-10 4.078427548E-02
3.050000000E+01 9.999994084E-01 5.200403840E-10 4.065055654E-02
3.060000000E+01 9.999994123E-01 5.166469811E-10 4.051771159E-02
3.070000000E+01 9.999994161E-01 5.132866845E-10 4.038573207E-02
3.080000000E+01 9.999994199E-01 5.099590648E-10 4.025460956E-02
3.090000000E+01 9.999994236E-01 5.066636998E-10 4.012433575E-02
3.100000000E+01 9.999994274E-01 5.034001740E-10 3.999490241E-02
3.110000000E+01 9.999994311E-01 4.640525948E-10 3.986630143E-02
3.120000000E+01 9.999994347E-01 4.579066705E-10 3.973852483E-02
3.130000000E+01 9.999994384E-01 4.518498539E-10 3.961156468E-02
3.140000000E+01 9.999994419E-01 4.458806275E-10 3.948541320E-02
3.150000000E+01 9.999994455E-01 4.399975041E-10 3.936006269E-02
3.160000000E+01 9.999994490E-01 4.341990259E-10 3.923550552E-02
3.170000000E+01 9.999994525E-01 4.284837636E-10 3.911173421E-02
3.180000000E+01 9.999994559E-01 4.228503164E-10 3.898874134E-02
3.190000000E+01 9.999994593E-01 4.172973107E-10 3.886651958E-02
3.200000000E+01 9.999994627E-01 4.118233999E-10 3.874506171E-02
3.210000000E+01 9.999994660E-01 4.067945021E-10 3.862436058E-02
3.220000000E+01 9.999994693E-01 4.042717516E-10 3.850440915E-02
3.230000000E+01 9.999994726E-01 4.017723959E-10 3.838520045E-02
3.240000000E+01 9.999994759E-01 3.992961466E-10 3.826672761E-02
3.250000000E+01 9.999994791E-01 3.968427199E-10 3.814898383E-02
3.260000000E+01 9.999994823E-01 3.944118361E-10 3.803196241E-02
3.270000000E+01 9.999994854E-01 3.920032198E-10 3.791565672E-02
