# 08/03/2022 
# Density retrieved from www.chemicool.com/densities.html 
# Includes the real (n) and complex (k) part of the  refractive index. 
# Element, Sm  (Z = 62) 
# Nominal density, g cm-3 =  7.54 
#    E [keV]      n       k    Wavelength [nm] 
2.000000000E+00 9.997210464E-01 1.123034090E-04 6.199209873E-01
2.100000000E+00 9.997427402E-01 9.609166435E-05 5.904009403E-01
2.200000000E+00 9.997612305E-01 8.226752610E-05 5.635645339E-01
2.300000000E+00 9.997785944E-01 7.084042036E-05 5.390617281E-01
2.400000000E+00 9.997950329E-01 6.145426988E-05 5.166008227E-01
2.500000000E+00 9.998099158E-01 5.357159481E-05 4.959367898E-01
2.600000000E+00 9.998233565E-01 4.684125246E-05 4.768622979E-01
2.700000000E+00 9.998355209E-01 4.114889790E-05 4.592007313E-01
2.800000000E+00 9.998465609E-01 3.642651395E-05 4.428007052E-01
2.900000000E+00 9.998562844E-01 3.236337461E-05 4.275317154E-01
3.000000000E+00 9.998651791E-01 2.882943241E-05 4.132806582E-01
3.100000000E+00 9.998734352E-01 2.562292066E-05 3.999490241E-01
3.200000000E+00 9.998811255E-01 2.284963056E-05 3.874506171E-01
3.300000000E+00 9.998881881E-01 2.046028137E-05 3.757096893E-01
3.400000000E+00 9.998946781E-01 1.837933145E-05 3.646594043E-01
3.500000000E+00 9.999006135E-01 1.655679150E-05 3.542405642E-01
3.600000000E+00 9.999061113E-01 1.502584971E-05 3.444005485E-01
3.700000000E+00 9.999111986E-01 1.356884998E-05 3.350924256E-01
3.800000000E+00 9.999158904E-01 1.237056592E-05 3.262742038E-01
3.900000000E+00 9.999202469E-01 1.124734769E-05 3.179081986E-01
4.000000000E+00 9.999242694E-01 1.033047650E-05 3.099604936E-01
4.100000000E+00 9.999275755E-01 9.581274496E-06 3.024004816E-01
4.200000000E+00 9.999311704E-01 8.655258695E-06 2.952004701E-01
4.300000000E+00 9.999344501E-01 7.963742151E-06 2.883353429E-01
4.400000000E+00 9.999374334E-01 7.510471357E-06 2.817822670E-01
4.500000000E+00 9.999403871E-01 6.787936138E-06 2.755204388E-01
4.600000000E+00 9.999430623E-01 6.281361165E-06 2.695308640E-01
4.700000000E+00 9.999454938E-01 5.950627450E-06 2.637961648E-01
4.800000000E+00 9.999479460E-01 5.399829967E-06 2.583004114E-01
4.900000000E+00 9.999501604E-01 5.015536353E-06 2.530289744E-01
5.000000000E+00 9.999521894E-01 4.734317238E-06 2.479683949E-01
5.100000000E+00 9.999540459E-01 4.550477930E-06 2.431062695E-01
5.200000000E+00 9.999561043E-01 4.056334749E-06 2.384311490E-01
5.300000000E+00 9.999578533E-01 3.792017292E-06 2.339324480E-01
5.400000000E+00 9.999593999E-01 3.652872624E-06 2.296003657E-01
5.500000000E+00 9.999611531E-01 3.322339067E-06 2.254258136E-01
5.600000000E+00 9.999626580E-01 3.115702224E-06 2.214003526E-01
5.700000000E+00 9.999640316E-01 2.956090275E-06 2.175161359E-01
5.800000000E+00 9.999652612E-01 2.855034870E-06 2.137658577E-01
5.900000000E+00 9.999668435E-01 2.591620400E-06 2.101427076E-01
6.000000000E+00 9.999680981E-01 2.441926615E-06 2.066403291E-01
6.100000000E+00 9.999692117E-01 2.331739621E-06 2.032527827E-01
6.200000000E+00 9.999701968E-01 2.257128806E-06 1.999745120E-01
6.300000000E+00 9.999718691E-01 2.053623094E-06 1.968003134E-01
6.400000000E+00 9.999730112E-01 1.941235085E-06 1.937253085E-01
6.500000000E+00 9.999740075E-01 1.850859299E-06 1.907449192E-01
6.600000000E+00 9.999754446E-01 1.747258704E-06 1.878548446E-01
6.700000000E+00 9.999786652E-01 1.648855793E-06 1.850510410E-01
6.800000000E+00 9.999775623E-01 4.645716701E-06 1.823297021E-01
6.900000000E+00 9.999772848E-01 4.371828032E-06 1.796872427E-01
7.000000000E+00 9.999778539E-01 4.228056837E-06 1.771202821E-01
7.100000000E+00 9.999782398E-01 3.899365501E-06 1.746256302E-01
7.200000000E+00 9.999787611E-01 3.720638402E-06 1.722002742E-01
7.300000000E+00 9.999802809E-01 3.502368752E-06 1.698413664E-01
7.400000000E+00 9.999798187E-01 4.641470730E-06 1.675462128E-01
7.500000000E+00 9.999800543E-01 4.443387332E-06 1.653122633E-01
7.600000000E+00 9.999802997E-01 4.194939514E-06 1.631371019E-01
7.700000000E+00 9.999808334E-01 3.974319469E-06 1.610184383E-01
7.800000000E+00 9.999811983E-01 4.408958852E-06 1.589540993E-01
7.900000000E+00 9.999812269E-01 4.194855951E-06 1.569420221E-01
8.000000000E+00 9.999816878E-01 4.088794532E-06 1.549802468E-01
8.100000000E+00 9.999821371E-01 3.988459839E-06 1.530669104E-01
8.200000000E+00 9.999821588E-01 3.684012598E-06 1.512002408E-01
8.300000000E+00 9.999824578E-01 3.530964306E-06 1.493785512E-01
8.400000000E+00 9.999827507E-01 3.385623038E-06 1.476002351E-01
8.500000000E+00 9.999831004E-01 3.279283362E-06 1.458637617E-01
8.600000000E+00 9.999834912E-01 3.203464344E-06 1.441676715E-01
8.700000000E+00 9.999838685E-01 3.130244721E-06 1.425105718E-01
8.800000000E+00 9.999840058E-01 2.872888826E-06 1.408911335E-01
8.900000000E+00 9.999843037E-01 2.759812493E-06 1.393080870E-01
9.000000000E+00 9.999845937E-01 2.652086711E-06 1.377602194E-01
9.100000000E+00 9.999849138E-01 2.580526918E-06 1.362463708E-01
9.200000000E+00 9.999852400E-01 2.524733389E-06 1.347654320E-01
9.300000000E+00 9.999855557E-01 2.470729958E-06 1.333163414E-01
9.400000000E+00 9.999857385E-01 2.263843355E-06 1.318980824E-01
9.500000000E+00 9.999860063E-01 2.177531803E-06 1.305096815E-01
9.600000000E+00 9.999862666E-01 2.095100221E-06 1.291502057E-01
9.700000000E+00 9.999865323E-01 2.031962322E-06 1.278187603E-01
9.800000000E+00 9.999868058E-01 1.990705278E-06 1.265144872E-01
9.900000000E+00 9.999870710E-01 1.950692122E-06 1.252365631E-01
1.000000000E+01 9.999872661E-01 1.804153509E-06 1.239841975E-01
1.010000000E+01 9.999875001E-01 1.739249140E-06 1.227566311E-01
1.020000000E+01 9.999877277E-01 1.677095109E-06 1.215531348E-01
1.030000000E+01 9.999879492E-01 1.617552568E-06 1.203730072E-01
1.040000000E+01 9.999881763E-01 1.580437994E-06 1.192155745E-01
1.050000000E+01 9.999884004E-01 1.550477764E-06 1.180801881E-01
1.060000000E+01 9.999886183E-01 1.521361458E-06 1.169662240E-01
1.070000000E+01 9.999887933E-01 1.406179823E-06 1.158730817E-01
1.080000000E+01 9.999889907E-01 1.358614689E-06 1.148001828E-01
1.090000000E+01 9.999891829E-01 1.312940255E-06 1.137469701E-01
1.100000000E+01 9.999893702E-01 1.269067006E-06 1.127129068E-01
1.110000000E+01 9.999895583E-01 1.240327780E-06 1.116974752E-01
1.120000000E+01 9.999897440E-01 1.218277948E-06 1.107001763E-01
1.130000000E+01 9.999899247E-01 1.196810915E-06 1.097205287E-01
1.140000000E+01 9.999901007E-01 1.175906323E-06 1.087580679E-01
1.150000000E+01 9.999902483E-01 1.079137769E-06 1.078123456E-01
1.160000000E+01 9.999904109E-01 1.045398534E-06 1.068829288E-01
1.170000000E+01 9.999905696E-01 1.012905818E-06 1.059693995E-01
1.180000000E+01 9.999907245E-01 9.820578061E-07 1.050713538E-01
1.190000000E+01 9.999908797E-01 9.656219824E-07 1.041884012E-01
1.200000000E+01 9.999910311E-01 9.495953398E-07 1.033201645E-01
1.210000000E+01 9.999911787E-01 9.339644077E-07 1.024662789E-01
1.220000000E+01 9.999913116E-01 8.694159307E-07 1.016263914E-01
1.230000000E+01 9.999914498E-01 8.437999006E-07 1.008001605E-01
1.240000000E+01 9.999915846E-01 8.190768607E-07 9.998725601E-02
1.250000000E+01 9.999917163E-01 7.952096313E-07 9.918735797E-02
1.260000000E+01 9.999918449E-01 7.721628443E-07 9.840015671E-02
1.270000000E+01 9.999919726E-01 7.592627842E-07 9.762535233E-02
1.280000000E+01 9.999920976E-01 7.474456450E-07 9.686265426E-02
1.290000000E+01 9.999922196E-01 7.359022563E-07 9.611178098E-02
1.300000000E+01 9.999923389E-01 7.246242276E-07 9.537245958E-02
1.310000000E+01 9.999924437E-01 6.704023911E-07 9.464442554E-02
1.320000000E+01 9.999925555E-01 6.520280350E-07 9.392742232E-02
1.330000000E+01 9.999926648E-01 6.342506937E-07 9.322120110E-02
1.340000000E+01 9.999927718E-01 6.170471780E-07 9.252552049E-02
1.350000000E+01 9.999928769E-01 6.021549397E-07 9.184014627E-02
1.360000000E+01 9.999929813E-01 5.933322760E-07 9.116485107E-02
1.370000000E+01 9.999930834E-01 5.847021033E-07 9.049941420E-02
1.380000000E+01 9.999931833E-01 5.762588624E-07 8.984362135E-02
1.390000000E+01 9.999932810E-01 5.679971935E-07 8.919726436E-02
1.400000000E+01 9.999933738E-01 5.252550446E-07 8.856014104E-02
1.410000000E+01 9.999934670E-01 5.115924563E-07 8.793205493E-02
1.420000000E+01 9.999935582E-01 4.983479103E-07 8.731281511E-02
1.430000000E+01 9.999936475E-01 4.855061444E-07 8.670223598E-02
1.440000000E+01 9.999937349E-01 4.730525484E-07 8.610013712E-02
1.450000000E+01 9.999938210E-01 4.661732079E-07 8.550634307E-02
1.460000000E+01 9.999939054E-01 4.598091431E-07 8.492068319E-02
1.470000000E+01 9.999939880E-01 4.535745150E-07 8.434299147E-02
1.480000000E+01 9.999940690E-01 4.474658371E-07 8.377310639E-02
1.490000000E+01 9.999941463E-01 4.171062001E-07 8.321087078E-02
1.500000000E+01 9.999942237E-01 4.068807414E-07 8.265613164E-02
1.510000000E+01 9.999942996E-01 3.969498743E-07 8.210874004E-02
1.520000000E+01 9.999943740E-01 3.873034720E-07 8.156855096E-02
1.530000000E+01 9.999944469E-01 3.779318150E-07 8.103542318E-02
1.540000000E+01 9.999945185E-01 3.688255725E-07 8.050921913E-02
1.550000000E+01 9.999945889E-01 3.640090051E-07 7.998980481E-02
1.560000000E+01 9.999946581E-01 3.593571806E-07 7.947704965E-02
1.570000000E+01 9.999947259E-01 3.547939611E-07 7.897082641E-02
1.580000000E+01 9.999947925E-01 3.503171105E-07 7.847101105E-02
1.590000000E+01 9.999948578E-01 3.459244629E-07 7.797748268E-02
1.600000000E+01 9.999949216E-01 3.197955886E-07 7.749012341E-02
1.610000000E+01 9.999949845E-01 3.123895777E-07 7.700881830E-02
1.620000000E+01 9.999950462E-01 3.051835122E-07 7.653345522E-02
1.630000000E+01 9.999951067E-01 2.981709634E-07 7.606392482E-02
1.640000000E+01 9.999951662E-01 2.913457444E-07 7.560012040E-02
1.650000000E+01 9.999952246E-01 2.858474518E-07 7.514193785E-02
1.660000000E+01 9.999952820E-01 2.824138799E-07 7.468927558E-02
1.670000000E+01 9.999953383E-01 2.790418041E-07 7.424203441E-02
1.680000000E+01 9.999953936E-01 2.757297646E-07 7.380011753E-02
1.690000000E+01 9.999954480E-01 2.724763445E-07 7.336343045E-02
1.700000000E+01 9.999955014E-01 2.692801687E-07 7.293188086E-02
1.710000000E+01 9.999955561E-01 2.493141614E-07 7.250537863E-02
1.720000000E+01 9.999956080E-01 2.439239492E-07 7.208383573E-02
1.730000000E+01 9.999956589E-01 2.386699101E-07 7.166716616E-02
1.740000000E+01 9.999957090E-01 2.335479432E-07 7.125528590E-02
1.750000000E+01 9.999957582E-01 2.285540925E-07 7.084811283E-02
1.760000000E+01 9.999958066E-01 2.237096471E-07 7.044556674E-02
1.770000000E+01 9.999958538E-01 2.211889951E-07 7.004756919E-02
1.780000000E+01 9.999959003E-01 2.187107066E-07 6.965404352E-02
1.790000000E+01 9.999959460E-01 2.162738375E-07 6.926491478E-02
1.800000000E+01 9.999959909E-01 2.138774700E-07 6.888010970E-02
1.810000000E+01 9.999960351E-01 2.115207114E-07 6.849955661E-02
1.820000000E+01 9.999960809E-01 1.975638278E-07 6.812318542E-02
1.830000000E+01 9.999961239E-01 1.935687984E-07 6.775092757E-02
1.840000000E+01 9.999961663E-01 1.896685127E-07 6.738271601E-02
1.850000000E+01 9.999962080E-01 1.858602891E-07 6.701848511E-02
1.860000000E+01 9.999962490E-01 1.821415346E-07 6.665817068E-02
1.870000000E+01 9.999962894E-01 1.785097421E-07 6.630170987E-02
1.880000000E+01 9.999963291E-01 1.749624865E-07 6.594904120E-02
1.890000000E+01 9.999963679E-01 1.728884570E-07 6.560010448E-02
1.900000000E+01 9.999964060E-01 1.710733677E-07 6.525484077E-02
1.910000000E+01 9.999964435E-01 1.692867129E-07 6.491319239E-02
1.920000000E+01 9.999964805E-01 1.675279018E-07 6.457510284E-02
1.930000000E+01 9.999965169E-01 1.657963589E-07 6.424051682E-02
1.940000000E+01 9.999965527E-01 1.640915233E-07 6.390938013E-02
1.950000000E+01 9.999965904E-01 1.528463229E-07 6.358163972E-02
1.960000000E+01 9.999966255E-01 1.499656752E-07 6.325724360E-02
1.970000000E+01 9.999966600E-01 1.471488078E-07 6.293614084E-02
1.980000000E+01 9.999966940E-01 1.443940340E-07 6.261828154E-02
1.990000000E+01 9.999967274E-01 1.416997193E-07 6.230361681E-02
2.000000000E+01 9.999967604E-01 1.390642798E-07 6.199209873E-02
2.010000000E+01 9.999967929E-01 1.364861800E-07 6.168368033E-02
2.020000000E+01 9.999968246E-01 1.350086628E-07 6.137831557E-02
2.030000000E+01 9.999968558E-01 1.336818044E-07 6.107595934E-02
2.040000000E+01 9.999968865E-01 1.323744108E-07 6.077656738E-02
2.050000000E+01 9.999969168E-01 1.310861030E-07 6.048009632E-02
2.060000000E+01 9.999969467E-01 1.298165114E-07 6.018650362E-02
2.070000000E+01 9.999969761E-01 1.285652752E-07 5.989574756E-02
2.080000000E+01 9.999970074E-01 1.203292378E-07 5.960778724E-02
2.090000000E+01 9.999970362E-01 1.182118778E-07 5.932258252E-02
2.100000000E+01 9.999970647E-01 1.161384328E-07 5.904009403E-02
2.110000000E+01 9.999970928E-01 1.141078138E-07 5.876028316E-02
2.120000000E+01 9.999971204E-01 1.121189631E-07 5.848311201E-02
2.130000000E+01 9.999971477E-01 1.101708540E-07 5.820854341E-02
2.140000000E+01 9.999971745E-01 1.082624892E-07 5.793654087E-02
2.150000000E+01 9.999972010E-01 1.064023081E-07 5.766706859E-02
2.160000000E+01 9.999972269E-01 1.054193822E-07 5.740009142E-02
2.170000000E+01 9.999972524E-01 1.044500137E-07 5.713557487E-02
2.180000000E+01 9.999972775E-01 1.034939545E-07 5.687348507E-02
2.190000000E+01 9.999973024E-01 1.025509621E-07 5.661378879E-02
2.200000000E+01 9.999973268E-01 1.016207995E-07 5.635645339E-02
2.210000000E+01 9.999973510E-01 1.007032349E-07 5.610144681E-02
2.220000000E+01 9.999973748E-01 9.979804184E-08 5.584873759E-02
2.230000000E+01 9.999974005E-01 9.304574520E-08 5.559829482E-02
2.240000000E+01 9.999974239E-01 9.152110277E-08 5.535008815E-02
2.250000000E+01 9.999974470E-01 9.002595841E-08 5.510408776E-02
2.260000000E+01 9.999974698E-01 8.855962917E-08 5.486026436E-02
2.270000000E+01 9.999974923E-01 8.712145067E-08 5.461858919E-02
2.280000000E+01 9.999975145E-01 8.571077649E-08 5.437903397E-02
2.290000000E+01 9.999975364E-01 8.432697762E-08 5.414157094E-02
2.300000000E+01 9.999975579E-01 8.308596506E-08 5.390617281E-02
2.310000000E+01 9.999975790E-01 8.236816311E-08 5.367281275E-02
2.320000000E+01 9.999975999E-01 8.165962306E-08 5.344146442E-02
2.330000000E+01 9.999976204E-01 8.096018625E-08 5.321210191E-02
2.340000000E+01 9.999976407E-01 8.026969741E-08 5.298469977E-02
2.350000000E+01 9.999976608E-01 7.958800455E-08 5.275923296E-02
2.360000000E+01 9.999976805E-01 7.891495891E-08 5.253567689E-02
2.370000000E+01 9.999977001E-01 7.825041485E-08 5.231400737E-02
2.380000000E+01 9.999977213E-01 7.323188074E-08 5.209420061E-02
2.390000000E+01 9.999977405E-01 7.211225566E-08 5.187623325E-02
2.400000000E+01 9.999977595E-01 7.101290821E-08 5.166008227E-02
2.410000000E+01 9.999977783E-01 6.993339841E-08 5.144572509E-02
2.420000000E+01 9.999977968E-01 6.887329753E-08 5.123313945E-02
2.430000000E+01 9.999978151E-01 6.783218768E-08 5.102230348E-02
2.440000000E+01 9.999978332E-01 6.680966155E-08 5.081319568E-02
2.450000000E+01 9.999978511E-01 6.580532209E-08 5.060579488E-02
2.460000000E+01 9.999978686E-01 6.495062091E-08 5.040008027E-02
2.470000000E+01 9.999978859E-01 6.442576956E-08 5.019603136E-02
2.480000000E+01 9.999979029E-01 6.390725441E-08 4.999362801E-02
2.490000000E+01 9.999979197E-01 6.339497387E-08 4.979285038E-02
2.500000000E+01 9.999979363E-01 6.288882840E-08 4.959367898E-02
2.510000000E+01 9.999979527E-01 6.238872042E-08 4.939609460E-02
2.520000000E+01 9.999979689E-01 6.189455428E-08 4.920007836E-02
2.530000000E+01 9.999979849E-01 6.140623623E-08 4.900561164E-02
2.540000000E+01 9.999980024E-01 5.768335960E-08 4.881267616E-02
2.550000000E+01 9.999980182E-01 5.685824466E-08 4.862125391E-02
2.560000000E+01 9.999980338E-01 5.604713246E-08 4.843132713E-02
2.570000000E+01 9.999980493E-01 5.524973815E-08 4.824287839E-02
2.580000000E+01 9.999980646E-01 5.446578367E-08 4.805589049E-02
2.590000000E+01 9.999980796E-01 5.369499758E-08 4.787034651E-02
2.600000000E+01 9.999980946E-01 5.293711489E-08 4.768622979E-02
2.610000000E+01 9.999981093E-01 5.219187686E-08 4.750352393E-02
2.620000000E+01 9.999981239E-01 5.145903086E-08 4.732221277E-02
2.630000000E+01 9.999981382E-01 5.086257505E-08 4.714228040E-02
2.640000000E+01 9.999981523E-01 5.047798229E-08 4.696371116E-02
2.650000000E+01 9.999981662E-01 5.009773519E-08 4.678648961E-02
2.660000000E+01 9.999981800E-01 4.972176853E-08 4.661060055E-02
2.670000000E+01 9.999981936E-01 4.935001829E-08 4.643602901E-02
2.680000000E+01 9.999982070E-01 4.898242167E-08 4.626276025E-02
2.690000000E+01 9.999982203E-01 4.861891701E-08 4.609077972E-02
2.700000000E+01 9.999982335E-01 4.825944381E-08 4.592007313E-02
2.710000000E+01 9.999982465E-01 4.790394267E-08 4.575062637E-02
2.720000000E+01 9.999982608E-01 4.473820465E-08 4.558242554E-02
2.730000000E+01 9.999982737E-01 4.412446731E-08 4.541545694E-02
2.740000000E+01 9.999982864E-01 4.352055809E-08 4.524970710E-02
2.750000000E+01 9.999982990E-01 4.292628917E-08 4.508516271E-02
2.760000000E+01 9.999983115E-01 4.234147691E-08 4.492181067E-02
2.770000000E+01 9.999983238E-01 4.176594178E-08 4.475963807E-02
2.780000000E+01 9.999983359E-01 4.119950827E-08 4.459863218E-02
2.790000000E+01 9.999983480E-01 4.064200472E-08 4.443878045E-02
2.800000000E+01 9.999983599E-01 4.009326330E-08 4.428007052E-02
2.810000000E+01 9.999983717E-01 3.961388806E-08 4.412249020E-02
2.820000000E+01 9.999983832E-01 3.933343664E-08 4.396602747E-02
2.830000000E+01 9.999983946E-01 3.905595294E-08 4.381067048E-02
2.840000000E+01 9.999984059E-01 3.878139525E-08 4.365640756E-02
2.850000000E+01 9.999984170E-01 3.850972256E-08 4.350322718E-02
2.860000000E+01 9.999984281E-01 3.824089460E-08 4.335111799E-02
2.870000000E+01 9.999984390E-01 3.797487180E-08 4.320006880E-02
2.880000000E+01 9.999984498E-01 3.771161525E-08 4.305006856E-02
2.890000000E+01 9.999984606E-01 3.745108673E-08 4.290110639E-02
2.900000000E+01 9.999984712E-01 3.719324869E-08 4.275317154E-02
2.910000000E+01 9.999984832E-01 3.465541839E-08 4.260625342E-02
2.920000000E+01 9.999984937E-01 3.420556217E-08 4.246034160E-02
2.930000000E+01 9.999985041E-01 3.376247281E-08 4.231542575E-02
2.940000000E+01 9.999985144E-01 3.332602905E-08 4.217149573E-02
2.950000000E+01 9.999985246E-01 3.289611216E-08 4.202854151E-02
2.960000000E+01 9.999985347E-01 3.247260592E-08 4.188655320E-02
2.970000000E+01 9.999985446E-01 3.205539652E-08 4.174552103E-02
2.980000000E+01 9.999985545E-01 3.164437252E-08 4.160543539E-02
2.990000000E+01 9.999985643E-01 3.123942479E-08 4.146628678E-02
3.000000000E+01 9.999985740E-01 3.084044645E-08 4.132806582E-02
3.010000000E+01 9.999985835E-01 3.061106024E-08 4.119076328E-02
3.020000000E+01 9.999985928E-01 3.040867362E-08 4.105437002E-02
3.030000000E+01 9.999986021E-01 3.020828752E-08 4.091887705E-02
3.040000000E+01 9.999986113E-01 3.000987566E-08 4.078427548E-02
3.050000000E+01 9.999986204E-01 2.981341219E-08 4.065055654E-02
3.060000000E+01 9.999986294E-01 2.961887168E-08 4.051771159E-02
3.070000000E+01 9.999986383E-01 2.942622913E-08 4.038573207E-02
3.080000000E+01 9.999986471E-01 2.923545991E-08 4.025460956E-02
3.090000000E+01 9.999986559E-01 2.904653982E-08 4.012433575E-02
3.100000000E+01 9.999986645E-01 2.885944505E-08 3.999490241E-02
3.110000000E+01 9.999986746E-01 2.689919094E-08 3.986630143E-02
3.120000000E+01 9.999986832E-01 2.657094648E-08 3.973852483E-02
3.130000000E+01 9.999986917E-01 2.624733203E-08 3.961156468E-02
3.140000000E+01 9.999987002E-01 2.592826981E-08 3.948541320E-02
3.150000000E+01 9.999987085E-01 2.561368359E-08 3.936006269E-02
3.160000000E+01 9.999987168E-01 2.530349863E-08 3.923550552E-02
3.170000000E+01 9.999987250E-01 2.499764167E-08 3.911173421E-02
3.180000000E+01 9.999987332E-01 2.469604084E-08 3.898874134E-02
3.190000000E+01 9.999987412E-01 2.439862572E-08 3.886651958E-02
3.200000000E+01 9.999987492E-01 2.410532721E-08 3.874506171E-02
3.210000000E+01 9.999987571E-01 2.383412617E-08 3.862436058E-02
3.220000000E+01 9.999987648E-01 2.368631799E-08 3.850440915E-02
3.230000000E+01 9.999987724E-01 2.353988052E-08 3.838520045E-02
3.240000000E+01 9.999987800E-01 2.339479685E-08 3.826672761E-02
3.250000000E+01 9.999987875E-01 2.325105036E-08 3.814898383E-02
3.260000000E+01 9.999987949E-01 2.310862466E-08 3.803196241E-02
3.270000000E+01 9.999988023E-01 2.296750362E-08 3.791565672E-02
