# 08/03/2022 
# Density retrieved from www.chemicool.com/densities.html 
# Includes the real (n) and complex (k) part of the  refractive index. 
# Element, Tc  (Z = 43) 
# Nominal density, g cm-3 =  11.5 
#    E [keV]      n       k    Wavelength [nm] 
2.000000000E+00 9.995607295E-01 5.625941885E-05 6.199209873E-01
2.100000000E+00 9.996073975E-01 4.639999905E-05 5.904009403E-01
2.200000000E+00 9.996485353E-01 3.908616736E-05 5.635645339E-01
2.300000000E+00 9.996849142E-01 3.359352848E-05 5.390617281E-01
2.400000000E+00 9.997153915E-01 2.942738690E-05 5.166008227E-01
2.500000000E+00 9.997510432E-01 2.529487319E-05 4.959367898E-01
2.600000000E+00 9.997872621E-01 2.214554625E-05 4.768622979E-01
2.700000000E+00 9.998339644E-01 7.426291206E-05 4.592007313E-01
2.800000000E+00 9.998282456E-01 7.862654886E-05 4.428007052E-01
2.900000000E+00 9.998105147E-01 7.861128424E-05 4.275317154E-01
3.000000000E+00 9.998161361E-01 7.037874523E-05 4.132806582E-01
3.100000000E+00 9.998196345E-01 7.131661295E-05 3.999490241E-01
3.200000000E+00 9.998300143E-01 6.676162364E-05 3.874506171E-01
3.300000000E+00 9.998289736E-01 5.712756910E-05 3.757096893E-01
3.400000000E+00 9.998378990E-01 5.331805427E-05 3.646594043E-01
3.500000000E+00 9.998421530E-01 4.629425772E-05 3.542405642E-01
3.600000000E+00 9.998496420E-01 4.280292505E-05 3.444005485E-01
3.700000000E+00 9.998553654E-01 3.791578968E-05 3.350924256E-01
3.800000000E+00 9.998616322E-01 3.453249237E-05 3.262742038E-01
3.900000000E+00 9.998686370E-01 3.278429913E-05 3.179081986E-01
4.000000000E+00 9.998733994E-01 2.863420403E-05 3.099604936E-01
4.100000000E+00 9.998790967E-01 2.666267881E-05 3.024004816E-01
4.200000000E+00 9.998840552E-01 2.402704759E-05 2.952004701E-01
4.300000000E+00 9.998889341E-01 2.206911593E-05 2.883353429E-01
4.400000000E+00 9.998937786E-01 2.080011776E-05 2.817822670E-01
4.500000000E+00 9.998979701E-01 1.874107555E-05 2.755204388E-01
4.600000000E+00 9.999020970E-01 1.730889845E-05 2.695308640E-01
4.700000000E+00 9.999061382E-01 1.638681397E-05 2.637961648E-01
4.800000000E+00 9.999097295E-01 1.485964714E-05 2.583004114E-01
4.900000000E+00 9.999132247E-01 1.379615264E-05 2.530289744E-01
5.000000000E+00 9.999165855E-01 1.301954277E-05 2.479683949E-01
5.100000000E+00 9.999198246E-01 1.251397806E-05 2.431062695E-01
5.200000000E+00 9.999226506E-01 1.115166973E-05 2.384311490E-01
5.300000000E+00 9.999254619E-01 1.042372097E-05 2.339324480E-01
5.400000000E+00 9.999281970E-01 1.004123189E-05 2.296003657E-01
5.500000000E+00 9.999305555E-01 9.100150454E-06 2.254258136E-01
5.600000000E+00 9.999329111E-01 8.518740302E-06 2.214003526E-01
5.700000000E+00 9.999351855E-01 8.073214239E-06 2.175161359E-01
5.800000000E+00 9.999374012E-01 7.797227427E-06 2.137658577E-01
5.900000000E+00 9.999394579E-01 7.033310170E-06 2.101427076E-01
6.000000000E+00 9.999414411E-01 6.608938876E-06 2.066403291E-01
6.100000000E+00 9.999433366E-01 6.301783263E-06 2.032527827E-01
6.200000000E+00 9.999451497E-01 6.100139313E-06 1.999745120E-01
6.300000000E+00 9.999468404E-01 5.519662053E-06 1.968003134E-01
6.400000000E+00 9.999484751E-01 5.205653126E-06 1.937253085E-01
6.500000000E+00 9.999500397E-01 4.955486952E-06 1.907449192E-01
6.600000000E+00 9.999515422E-01 4.806458304E-06 1.878548446E-01
6.700000000E+00 9.999529903E-01 4.397691710E-06 1.850510410E-01
6.800000000E+00 9.999543677E-01 4.163463412E-06 1.823297021E-01
6.900000000E+00 9.999556854E-01 3.943847211E-06 1.796872427E-01
7.000000000E+00 9.999569432E-01 3.817758779E-06 1.771202821E-01
7.100000000E+00 9.999581475E-01 3.710973620E-06 1.746256302E-01
7.200000000E+00 9.999593264E-01 3.375244478E-06 1.722002742E-01
7.300000000E+00 9.999604410E-01 3.207979665E-06 1.698413664E-01
7.400000000E+00 9.999615099E-01 3.055231493E-06 1.675462128E-01
7.500000000E+00 9.999625294E-01 2.974301806E-06 1.653122633E-01
7.600000000E+00 9.999635090E-01 2.896545647E-06 1.631371019E-01
7.700000000E+00 9.999644790E-01 2.638785976E-06 1.610184383E-01
7.800000000E+00 9.999653925E-01 2.516455196E-06 1.589540993E-01
7.900000000E+00 9.999662712E-01 2.400793476E-06 1.569420221E-01
8.000000000E+00 9.999671094E-01 2.340082452E-06 1.549802468E-01
8.100000000E+00 9.999679165E-01 2.282659304E-06 1.530669104E-01
8.200000000E+00 9.999687203E-01 2.095618207E-06 1.512002408E-01
8.300000000E+00 9.999694776E-01 2.004339489E-06 1.493785512E-01
8.400000000E+00 9.999702078E-01 1.917742596E-06 1.476002351E-01
8.500000000E+00 9.999709081E-01 1.855675644E-06 1.458637617E-01
8.600000000E+00 9.999715807E-01 1.812771299E-06 1.441676715E-01
8.700000000E+00 9.999722302E-01 1.771337895E-06 1.425105718E-01
8.800000000E+00 9.999728829E-01 1.616615581E-06 1.408911335E-01
8.900000000E+00 9.999734954E-01 1.550450320E-06 1.393080870E-01
9.000000000E+00 9.999740874E-01 1.487463060E-06 1.377602194E-01
9.100000000E+00 9.999746556E-01 1.446597435E-06 1.362463708E-01
9.200000000E+00 9.999752036E-01 1.415320576E-06 1.347654320E-01
9.300000000E+00 9.999757340E-01 1.385047214E-06 1.333163414E-01
9.400000000E+00 9.999762736E-01 1.262731639E-06 1.318980824E-01
9.500000000E+00 9.999767770E-01 1.212884625E-06 1.305096815E-01
9.600000000E+00 9.999772646E-01 1.165307183E-06 1.291502057E-01
9.700000000E+00 9.999777344E-01 1.129274586E-06 1.278187603E-01
9.800000000E+00 9.999781864E-01 1.106345750E-06 1.265144872E-01
9.900000000E+00 9.999786249E-01 1.084108212E-06 1.252365631E-01
1.000000000E+01 9.999790742E-01 9.991335797E-07 1.239841975E-01
1.010000000E+01 9.999794931E-01 9.621689248E-07 1.227566311E-01
1.020000000E+01 9.999798995E-01 9.267868609E-07 1.215531348E-01
1.030000000E+01 9.999802939E-01 8.929070634E-07 1.203730072E-01
1.040000000E+01 9.999806724E-01 8.721942869E-07 1.192155745E-01
1.050000000E+01 9.999810388E-01 8.556601730E-07 1.180801881E-01
1.060000000E+01 9.999813949E-01 8.395917949E-07 1.169662240E-01
1.070000000E+01 9.999817644E-01 7.733974233E-07 1.158730817E-01
1.080000000E+01 9.999821063E-01 7.465411144E-07 1.148001828E-01
1.090000000E+01 9.999824387E-01 7.207626246E-07 1.137469701E-01
1.100000000E+01 9.999827620E-01 6.960106699E-07 1.127129068E-01
1.110000000E+01 9.999830728E-01 6.800475147E-07 1.116974752E-01
1.120000000E+01 9.999833737E-01 6.679580221E-07 1.107001763E-01
1.130000000E+01 9.999836666E-01 6.561880671E-07 1.097205287E-01
1.140000000E+01 9.999839519E-01 6.447264873E-07 1.087580679E-01
1.150000000E+01 9.999842540E-01 5.890653908E-07 1.078123456E-01
1.160000000E+01 9.999845292E-01 5.700928967E-07 1.068829288E-01
1.170000000E+01 9.999847972E-01 5.518290735E-07 1.059693995E-01
1.180000000E+01 9.999850581E-01 5.345063953E-07 1.050713538E-01
1.190000000E+01 9.999853082E-01 5.255608395E-07 1.041884012E-01
1.200000000E+01 9.999855520E-01 5.168379894E-07 1.033201645E-01
1.210000000E+01 9.999857898E-01 5.083305135E-07 1.024662789E-01
1.220000000E+01 9.999860407E-01 4.707144021E-07 1.016263914E-01
1.230000000E+01 9.999862711E-01 4.562312276E-07 1.008001605E-01
1.240000000E+01 9.999864959E-01 4.422610153E-07 9.998725601E-02
1.250000000E+01 9.999867153E-01 4.287822317E-07 9.918735797E-02
1.260000000E+01 9.999869293E-01 4.157743977E-07 9.840015671E-02
1.270000000E+01 9.999871346E-01 4.087840204E-07 9.762535233E-02
1.280000000E+01 9.999873349E-01 4.024217203E-07 9.686265426E-02
1.290000000E+01 9.999875304E-01 3.962068064E-07 9.611178098E-02
1.300000000E+01 9.999877216E-01 3.901347613E-07 9.537245958E-02
1.310000000E+01 9.999879283E-01 3.584352992E-07 9.464442554E-02
1.320000000E+01 9.999881144E-01 3.481014654E-07 9.392742232E-02
1.330000000E+01 9.999882961E-01 3.381096584E-07 9.322120110E-02
1.340000000E+01 9.999884738E-01 3.284464651E-07 9.252552049E-02
1.350000000E+01 9.999886466E-01 3.201485367E-07 9.184014627E-02
1.360000000E+01 9.999888129E-01 3.154577790E-07 9.116485107E-02
1.370000000E+01 9.999889757E-01 3.108693634E-07 9.049941420E-02
1.380000000E+01 9.999891349E-01 3.063803340E-07 8.984362135E-02
1.390000000E+01 9.999892906E-01 3.019878412E-07 8.919726436E-02
1.400000000E+01 9.999894626E-01 2.774932438E-07 8.856014104E-02
1.410000000E+01 9.999896150E-01 2.699356664E-07 8.793205493E-02
1.420000000E+01 9.999897642E-01 2.626131902E-07 8.731281511E-02
1.430000000E+01 9.999899102E-01 2.555171587E-07 8.670223598E-02
1.440000000E+01 9.999900531E-01 2.486392866E-07 8.610013712E-02
1.450000000E+01 9.999901900E-01 2.450019260E-07 8.550634307E-02
1.460000000E+01 9.999903239E-01 2.416572291E-07 8.492068319E-02
1.470000000E+01 9.999904551E-01 2.383805588E-07 8.434299147E-02
1.480000000E+01 9.999905837E-01 2.351700828E-07 8.377310639E-02
1.490000000E+01 9.999907271E-01 2.181945270E-07 8.321087078E-02
1.500000000E+01 9.999908537E-01 2.126380762E-07 8.265613164E-02
1.510000000E+01 9.999909777E-01 2.072439156E-07 8.210874004E-02
1.520000000E+01 9.999910992E-01 2.020064269E-07 8.156855096E-02
1.530000000E+01 9.999912183E-01 1.969202185E-07 8.103542318E-02
1.540000000E+01 9.999913350E-01 1.919801156E-07 8.050921913E-02
1.550000000E+01 9.999914465E-01 1.894695920E-07 7.998980481E-02
1.560000000E+01 9.999915558E-01 1.870482802E-07 7.947704965E-02
1.570000000E+01 9.999916630E-01 1.846730880E-07 7.897082641E-02
1.580000000E+01 9.999917682E-01 1.823428516E-07 7.847101105E-02
1.590000000E+01 9.999918715E-01 1.800564435E-07 7.797748268E-02
1.600000000E+01 9.999919933E-01 1.659017070E-07 7.749012341E-02
1.610000000E+01 9.999920957E-01 1.619661221E-07 7.700881830E-02
1.620000000E+01 9.999921961E-01 1.581377069E-07 7.653345522E-02
1.630000000E+01 9.999922947E-01 1.544130001E-07 7.606392482E-02
1.640000000E+01 9.999923914E-01 1.507886714E-07 7.560012040E-02
1.650000000E+01 9.999924852E-01 1.478868950E-07 7.514193785E-02
1.660000000E+01 9.999925754E-01 1.461104920E-07 7.468927558E-02
1.670000000E+01 9.999926641E-01 1.443659048E-07 7.424203441E-02
1.680000000E+01 9.999927512E-01 1.426523780E-07 7.380011753E-02
1.690000000E+01 9.999928367E-01 1.409691789E-07 7.336343045E-02
1.700000000E+01 9.999929207E-01 1.393155958E-07 7.293188086E-02
1.710000000E+01 9.999930264E-01 1.285777627E-07 7.250537863E-02
1.720000000E+01 9.999931107E-01 1.257331623E-07 7.208383573E-02
1.730000000E+01 9.999931935E-01 1.229610218E-07 7.166716616E-02
1.740000000E+01 9.999932748E-01 1.202591498E-07 7.125528590E-02
1.750000000E+01 9.999933546E-01 1.176254325E-07 7.084811283E-02
1.760000000E+01 9.999934330E-01 1.150714284E-07 7.044556674E-02
1.770000000E+01 9.999935070E-01 1.137748593E-07 7.004756919E-02
1.780000000E+01 9.999935798E-01 1.125000810E-07 6.965404352E-02
1.790000000E+01 9.999936513E-01 1.112466080E-07 6.926491478E-02
1.800000000E+01 9.999937217E-01 1.100139681E-07 6.888010970E-02
1.810000000E+01 9.999937908E-01 1.088017022E-07 6.849955661E-02
1.820000000E+01 9.999938859E-01 1.013370345E-07 6.812318542E-02
1.830000000E+01 9.999939568E-01 9.924000393E-08 6.775092757E-02
1.840000000E+01 9.999940265E-01 9.719312233E-08 6.738271601E-02
1.850000000E+01 9.999940950E-01 9.519496411E-08 6.701848511E-02
1.860000000E+01 9.999941623E-01 9.324415106E-08 6.665817068E-02
1.870000000E+01 9.999942285E-01 9.133935057E-08 6.630170987E-02
1.880000000E+01 9.999942936E-01 8.947927386E-08 6.594904120E-02
1.890000000E+01 9.999943543E-01 8.841232036E-08 6.560010448E-02
1.900000000E+01 9.999944136E-01 8.748411345E-08 6.525484077E-02
1.910000000E+01 9.999944719E-01 8.657044751E-08 6.491319239E-02
1.920000000E+01 9.999945294E-01 8.567102038E-08 6.457510284E-02
1.930000000E+01 9.999945859E-01 8.478553774E-08 6.424051682E-02
1.940000000E+01 9.999946416E-01 8.391371281E-08 6.390938013E-02
1.950000000E+01 9.999947481E-01 7.792725969E-08 6.358163972E-02
1.960000000E+01 9.999948087E-01 7.642387986E-08 6.325724360E-02
1.970000000E+01 9.999948683E-01 7.495406956E-08 6.293614084E-02
1.980000000E+01 9.999949269E-01 7.351693713E-08 6.261828154E-02
1.990000000E+01 9.999949845E-01 7.211161863E-08 6.230361681E-02
2.000000000E+01 9.999950411E-01 7.073727683E-08 6.199209873E-02
2.010000000E+01 9.999950968E-01 6.939310029E-08 6.168368033E-02
2.020000000E+01 9.999951460E-01 6.863831641E-08 6.137831557E-02
2.030000000E+01 9.999951937E-01 6.796374245E-08 6.107595934E-02
2.040000000E+01 9.999952883E-01 6.561088628E-08 6.077656738E-02
2.050000000E+01 9.999953501E-01 6.440489631E-08 6.048009632E-02
2.060000000E+01 9.999954109E-01 6.322463038E-08 6.018650362E-02
2.070000000E+01 9.999954586E-01 6.249039990E-08 5.989574756E-02
2.080000000E+01 9.999955853E-01 6.095794119E-08 5.960778724E-02
2.090000000E+01 9.999956732E-01 5.986144499E-08 5.932258252E-02
2.100000000E+01 9.999958611E-01 5.877974897E-08 5.904009403E-02
2.110000000E+01 9.999958381E-01 2.654496324E-07 5.876028316E-02
2.120000000E+01 9.999958094E-01 3.940830464E-07 5.848311201E-02
2.130000000E+01 9.999958487E-01 3.903914223E-07 5.820854341E-02
2.140000000E+01 9.999957646E-01 3.786011803E-07 5.793654087E-02
2.150000000E+01 9.999957635E-01 3.719056538E-07 5.766706859E-02
2.160000000E+01 9.999958027E-01 3.684700542E-07 5.740009142E-02
2.170000000E+01 9.999958412E-01 3.650818418E-07 5.713557487E-02
2.180000000E+01 9.999958793E-01 3.617401492E-07 5.687348507E-02
2.190000000E+01 9.999959169E-01 3.584441285E-07 5.661378879E-02
2.200000000E+01 9.999959539E-01 3.551929514E-07 5.635645339E-02
2.210000000E+01 9.999959904E-01 3.519858080E-07 5.610144681E-02
2.220000000E+01 9.999960265E-01 3.488219067E-07 5.584873759E-02
2.230000000E+01 9.999959778E-01 3.248308798E-07 5.559829482E-02
2.240000000E+01 9.999960037E-01 3.194590101E-07 5.535008815E-02
2.250000000E+01 9.999960293E-01 3.141914271E-07 5.510408776E-02
2.260000000E+01 9.999960547E-01 3.090257122E-07 5.486026436E-02
2.270000000E+01 9.999960799E-01 3.039595124E-07 5.461858919E-02
2.280000000E+01 9.999961049E-01 2.989905383E-07 5.437903397E-02
2.290000000E+01 9.999961297E-01 2.941165626E-07 5.414157094E-02
2.300000000E+01 9.999961560E-01 2.897504515E-07 5.390617281E-02
2.310000000E+01 9.999961892E-01 2.872472196E-07 5.367281275E-02
2.320000000E+01 9.999962220E-01 2.847762873E-07 5.344146442E-02
2.330000000E+01 9.999962543E-01 2.823371012E-07 5.321210191E-02
2.340000000E+01 9.999962863E-01 2.799291199E-07 5.298469977E-02
2.350000000E+01 9.999963178E-01 2.775518132E-07 5.275923296E-02
2.360000000E+01 9.999963489E-01 2.752046626E-07 5.253567689E-02
2.370000000E+01 9.999963797E-01 2.728871599E-07 5.231400737E-02
2.380000000E+01 9.999963824E-01 2.559724091E-07 5.209420061E-02
2.390000000E+01 9.999964094E-01 2.521313075E-07 5.187623325E-02
2.400000000E+01 9.999964361E-01 2.483592812E-07 5.166008227E-02
2.410000000E+01 9.999964625E-01 2.446548371E-07 5.144572509E-02
2.420000000E+01 9.999964886E-01 2.410165199E-07 5.123313945E-02
2.430000000E+01 9.999965144E-01 2.374429113E-07 5.102230348E-02
2.440000000E+01 9.999965400E-01 2.339326287E-07 5.081319568E-02
2.450000000E+01 9.999965653E-01 2.304843243E-07 5.060579488E-02
2.460000000E+01 9.999965911E-01 2.275387223E-07 5.040008027E-02
2.470000000E+01 9.999966186E-01 2.257000331E-07 5.019603136E-02
2.480000000E+01 9.999966459E-01 2.238835412E-07 4.999362801E-02
2.490000000E+01 9.999966727E-01 2.220888908E-07 4.979285038E-02
2.500000000E+01 9.999966993E-01 2.203157331E-07 4.959367898E-02
2.510000000E+01 9.999967256E-01 2.185637263E-07 4.939609460E-02
2.520000000E+01 9.999967515E-01 2.168325353E-07 4.920007836E-02
2.530000000E+01 9.999967771E-01 2.151218316E-07 4.900561164E-02
2.540000000E+01 9.999967886E-01 2.024803050E-07 4.881267616E-02
2.550000000E+01 9.999968121E-01 1.996327727E-07 4.862125391E-02
2.560000000E+01 9.999968354E-01 1.968332540E-07 4.843132713E-02
2.570000000E+01 9.999968584E-01 1.940807752E-07 4.824287839E-02
2.580000000E+01 9.999968812E-01 1.913743863E-07 4.805589049E-02
2.590000000E+01 9.999969037E-01 1.887131595E-07 4.787034651E-02
2.600000000E+01 9.999969260E-01 1.860961892E-07 4.768622979E-02
2.610000000E+01 9.999969480E-01 1.835225910E-07 4.750352393E-02
2.620000000E+01 9.999969699E-01 1.809915014E-07 4.732221277E-02
2.630000000E+01 9.999969920E-01 1.789219758E-07 4.714228040E-02
2.640000000E+01 9.999970147E-01 1.775690735E-07 4.696371116E-02
2.650000000E+01 9.999970372E-01 1.762314581E-07 4.678648961E-02
2.660000000E+01 9.999970594E-01 1.749089003E-07 4.661060055E-02
2.670000000E+01 9.999970814E-01 1.736011748E-07 4.643602901E-02
2.680000000E+01 9.999971032E-01 1.723080606E-07 4.626276025E-02
2.690000000E+01 9.999971247E-01 1.710293410E-07 4.609077972E-02
2.700000000E+01 9.999971459E-01 1.697648031E-07 4.592007313E-02
2.710000000E+01 9.999971670E-01 1.685142379E-07 4.575062637E-02
2.720000000E+01 9.999971791E-01 1.577613370E-07 4.558242554E-02
2.730000000E+01 9.999971988E-01 1.556385998E-07 4.541545694E-02
2.740000000E+01 9.999972184E-01 1.535496143E-07 4.524970710E-02
2.750000000E+01 9.999972377E-01 1.514937379E-07 4.508516271E-02
2.760000000E+01 9.999972568E-01 1.494703422E-07 4.492181067E-02
2.770000000E+01 9.999972758E-01 1.474788129E-07 4.475963807E-02
2.780000000E+01 9.999972945E-01 1.455185493E-07 4.459863218E-02
2.790000000E+01 9.999973131E-01 1.435889640E-07 4.443878045E-02
2.800000000E+01 9.999973314E-01 1.416894827E-07 4.428007052E-02
2.810000000E+01 9.999973498E-01 1.400250323E-07 4.412249020E-02
2.820000000E+01 9.999973686E-01 1.390337077E-07 4.396602747E-02
2.830000000E+01 9.999973871E-01 1.380528734E-07 4.381067048E-02
2.840000000E+01 9.999974055E-01 1.370823816E-07 4.365640756E-02
2.850000000E+01 9.999974237E-01 1.361220877E-07 4.350322718E-02
2.860000000E+01 9.999974417E-01 1.351718492E-07 4.335111799E-02
2.870000000E+01 9.999974595E-01 1.342315261E-07 4.320006880E-02
2.880000000E+01 9.999974771E-01 1.333009811E-07 4.305006856E-02
2.890000000E+01 9.999974945E-01 1.323800790E-07 4.290110639E-02
2.900000000E+01 9.999975117E-01 1.314686870E-07 4.275317154E-02
2.910000000E+01 9.999975238E-01 1.227754054E-07 4.260625342E-02
2.920000000E+01 9.999975403E-01 1.212092453E-07 4.246034160E-02
2.930000000E+01 9.999975566E-01 1.196664959E-07 4.231542575E-02
2.940000000E+01 9.999975727E-01 1.181467390E-07 4.217149573E-02
2.950000000E+01 9.999975887E-01 1.166495653E-07 4.202854151E-02
2.960000000E+01 9.999976045E-01 1.151745738E-07 4.188655320E-02
2.970000000E+01 9.999976202E-01 1.137213721E-07 4.174552103E-02
2.980000000E+01 9.999976357E-01 1.122895758E-07 4.160543539E-02
2.990000000E+01 9.999976511E-01 1.108788085E-07 4.146628678E-02
3.000000000E+01 9.999976663E-01 1.094887016E-07 4.132806582E-02
3.010000000E+01 9.999976817E-01 1.086777386E-07 4.119076328E-02
3.020000000E+01 9.999976970E-01 1.079592101E-07 4.105437002E-02
3.030000000E+01 9.999977122E-01 1.072477840E-07 4.091887705E-02
3.040000000E+01 9.999977272E-01 1.065433669E-07 4.078427548E-02
3.050000000E+01 9.999977421E-01 1.058458672E-07 4.065055654E-02
3.060000000E+01 9.999977568E-01 1.051551946E-07 4.051771159E-02
3.070000000E+01 9.999977714E-01 1.044712602E-07 4.038573207E-02
3.080000000E+01 9.999977859E-01 1.037939766E-07 4.025460956E-02
3.090000000E+01 9.999978002E-01 1.031232580E-07 4.012433575E-02
3.100000000E+01 9.999978144E-01 1.024590198E-07 3.999490241E-02
3.110000000E+01 9.999978255E-01 9.577918213E-08 3.986630143E-02
3.120000000E+01 9.999978392E-01 9.463662262E-08 3.973852483E-02
3.130000000E+01 9.999978527E-01 9.351004816E-08 3.961156468E-02
3.140000000E+01 9.999978661E-01 9.239919141E-08 3.948541320E-02
3.150000000E+01 9.999978794E-01 9.130379025E-08 3.936006269E-02
3.160000000E+01 9.999978925E-01 9.022358773E-08 3.923550552E-02
3.170000000E+01 9.999979056E-01 8.915833188E-08 3.911173421E-02
3.180000000E+01 9.999979185E-01 8.810777565E-08 3.898874134E-02
3.190000000E+01 9.999979313E-01 8.707167677E-08 3.886651958E-02
3.200000000E+01 9.999979440E-01 8.604979767E-08 3.874506171E-02
3.210000000E+01 9.999979566E-01 8.510313973E-08 3.862436058E-02
3.220000000E+01 9.999979692E-01 8.457536959E-08 3.850440915E-02
3.230000000E+01 9.999979818E-01 8.405249375E-08 3.838520045E-02
3.240000000E+01 9.999979942E-01 8.353445188E-08 3.826672761E-02
3.250000000E+01 9.999980066E-01 8.302118458E-08 3.814898383E-02
3.260000000E+01 9.999980188E-01 8.251263334E-08 3.803196241E-02
3.270000000E+01 9.999980309E-01 8.200874057E-08 3.791565672E-02
