# 08/03/2022 
# Density retrieved from www.chemicool.com/densities.html 
# Includes the real (n) and complex (k) part of the  refractive index. 
# Element, Te  (Z = 52) 
# Nominal density, g cm-3 =  6.24 
#    E [keV]      n       k    Wavelength [nm] 
2.000000000E+00 9.997593216E-01 5.464668296E-05 6.199209873E-01
2.100000000E+00 9.997814218E-01 4.533373884E-05 5.904009403E-01
2.200000000E+00 9.998008695E-01 3.832126411E-05 5.635645339E-01
2.300000000E+00 9.998179193E-01 3.297669676E-05 5.390617281E-01
2.400000000E+00 9.998328700E-01 2.890242668E-05 5.166008227E-01
2.500000000E+00 9.998462723E-01 2.478392708E-05 4.959367898E-01
2.600000000E+00 9.998579586E-01 2.236681158E-05 4.768622979E-01
2.700000000E+00 9.998687779E-01 1.903967898E-05 4.592007313E-01
2.800000000E+00 9.998780300E-01 1.754356233E-05 4.428007052E-01
2.900000000E+00 9.998868855E-01 1.493698614E-05 4.275317154E-01
3.000000000E+00 9.998943148E-01 1.392409258E-05 4.132806582E-01
3.100000000E+00 9.999015024E-01 1.180789024E-05 3.999490241E-01
3.200000000E+00 9.999075732E-01 1.105347303E-05 3.874506171E-01
3.300000000E+00 9.999138018E-01 9.397812670E-06 3.757096893E-01
3.400000000E+00 9.999188606E-01 8.765250850E-06 3.646594043E-01
3.500000000E+00 9.999242676E-01 7.558808284E-06 3.542405642E-01
3.600000000E+00 9.999286153E-01 6.975387648E-06 3.444005485E-01
3.700000000E+00 9.999333258E-01 6.148869372E-06 3.350924256E-01
3.800000000E+00 9.999372796E-01 5.582740337E-06 3.262742038E-01
3.900000000E+00 9.999404548E-01 5.300116401E-06 3.179081986E-01
4.000000000E+00 9.999451178E-01 4.606574918E-06 3.099604936E-01
4.100000000E+00 9.999481651E-01 4.283649394E-06 3.024004816E-01
4.200000000E+00 9.999531707E-01 3.850380458E-06 2.952004701E-01
4.300000000E+00 9.999588048E-01 3.531780285E-06 2.883353429E-01
4.400000000E+00 9.999598646E-01 1.103856820E-05 2.817822670E-01
4.500000000E+00 9.999594216E-01 1.003163894E-05 2.755204388E-01
4.600000000E+00 9.999627807E-01 9.161577118E-06 2.695308640E-01
4.700000000E+00 9.999610967E-01 1.177807199E-05 2.637961648E-01
4.800000000E+00 9.999616922E-01 1.084188924E-05 2.583004114E-01
4.900000000E+00 9.999629565E-01 1.000978117E-05 2.530289744E-01
5.000000000E+00 9.999641419E-01 1.088426298E-05 2.479683949E-01
5.100000000E+00 9.999645063E-01 1.022040809E-05 2.431062695E-01
5.200000000E+00 9.999648879E-01 9.375231104E-06 2.384311490E-01
5.300000000E+00 9.999656727E-01 8.776951069E-06 2.339324480E-01
5.400000000E+00 9.999669324E-01 8.454888736E-06 2.296003657E-01
5.500000000E+00 9.999675181E-01 7.718787750E-06 2.254258136E-01
5.600000000E+00 9.999683966E-01 7.252442600E-06 2.214003526E-01
5.700000000E+00 9.999693397E-01 6.889043302E-06 2.175161359E-01
5.800000000E+00 9.999703878E-01 6.653537958E-06 2.137658577E-01
5.900000000E+00 9.999709951E-01 6.040026802E-06 2.101427076E-01
6.000000000E+00 9.999718055E-01 5.691299306E-06 2.066403291E-01
6.100000000E+00 9.999726510E-01 5.434564273E-06 2.032527827E-01
6.200000000E+00 9.999735262E-01 5.260669526E-06 1.999745120E-01
6.300000000E+00 9.999741302E-01 4.782759517E-06 1.968003134E-01
6.400000000E+00 9.999748478E-01 4.519604715E-06 1.937253085E-01
6.500000000E+00 9.999755618E-01 4.308267795E-06 1.907449192E-01
6.600000000E+00 9.999762968E-01 4.178703268E-06 1.878548446E-01
6.700000000E+00 9.999768763E-01 3.833740593E-06 1.850510410E-01
6.800000000E+00 9.999775026E-01 3.633938744E-06 1.823297021E-01
6.900000000E+00 9.999781040E-01 3.446498977E-06 1.796872427E-01
7.000000000E+00 9.999787186E-01 3.336930942E-06 1.771202821E-01
7.100000000E+00 9.999793138E-01 3.243594845E-06 1.746256302E-01
7.200000000E+00 9.999798010E-01 2.957126160E-06 1.722002742E-01
7.300000000E+00 9.999803236E-01 2.812992748E-06 1.698413664E-01
7.400000000E+00 9.999808279E-01 2.681231867E-06 1.675462128E-01
7.500000000E+00 9.999813358E-01 2.610209014E-06 1.653122633E-01
7.600000000E+00 9.999818237E-01 2.541971209E-06 1.631371019E-01
7.700000000E+00 9.999822423E-01 2.320490559E-06 1.610184383E-01
7.800000000E+00 9.999826795E-01 2.214437163E-06 1.589540993E-01
7.900000000E+00 9.999831007E-01 2.114134284E-06 1.569420221E-01
8.000000000E+00 9.999835203E-01 2.060703015E-06 1.549802468E-01
8.100000000E+00 9.999839247E-01 2.010135543E-06 1.530669104E-01
8.200000000E+00 9.999842864E-01 1.849622527E-06 1.512002408E-01
8.300000000E+00 9.999846541E-01 1.770450342E-06 1.493785512E-01
8.400000000E+00 9.999850090E-01 1.695312172E-06 1.476002351E-01
8.500000000E+00 9.999853560E-01 1.641051109E-06 1.458637617E-01
8.600000000E+00 9.999856945E-01 1.603109013E-06 1.441676715E-01
8.700000000E+00 9.999860215E-01 1.566467731E-06 1.425105718E-01
8.800000000E+00 9.999863044E-01 1.433061016E-06 1.408911335E-01
8.900000000E+00 9.999866018E-01 1.375367840E-06 1.393080870E-01
9.000000000E+00 9.999868897E-01 1.320428567E-06 1.377602194E-01
9.100000000E+00 9.999871738E-01 1.284429186E-06 1.362463708E-01
9.200000000E+00 9.999874511E-01 1.256658565E-06 1.347654320E-01
9.300000000E+00 9.999877196E-01 1.229778945E-06 1.333163414E-01
9.400000000E+00 9.999879657E-01 1.122791982E-06 1.318980824E-01
9.500000000E+00 9.999882142E-01 1.078905932E-06 1.305096815E-01
9.600000000E+00 9.999884552E-01 1.037010917E-06 1.291502057E-01
9.700000000E+00 9.999886902E-01 1.005180567E-06 1.278187603E-01
9.800000000E+00 9.999889198E-01 9.847713407E-07 1.265144872E-01
9.900000000E+00 9.999891425E-01 9.649774468E-07 1.252365631E-01
1.000000000E+01 9.999893542E-01 8.893451632E-07 1.239841975E-01
1.010000000E+01 9.999895628E-01 8.564436614E-07 1.227566311E-01
1.020000000E+01 9.999897653E-01 8.249507716E-07 1.215531348E-01
1.030000000E+01 9.999899619E-01 7.947950001E-07 1.203730072E-01
1.040000000E+01 9.999901538E-01 7.763584274E-07 1.192155745E-01
1.050000000E+01 9.999903404E-01 7.616410659E-07 1.180801881E-01
1.060000000E+01 9.999905218E-01 7.473382655E-07 1.169662240E-01
1.070000000E+01 9.999907016E-01 6.882058919E-07 1.158730817E-01
1.080000000E+01 9.999908738E-01 6.642517609E-07 1.148001828E-01
1.090000000E+01 9.999910413E-01 6.412597849E-07 1.137469701E-01
1.100000000E+01 9.999912042E-01 6.191841636E-07 1.127129068E-01
1.110000000E+01 9.999913623E-01 6.049667538E-07 1.116974752E-01
1.120000000E+01 9.999915158E-01 5.942120037E-07 1.107001763E-01
1.130000000E+01 9.999916653E-01 5.837415126E-07 1.097205287E-01
1.140000000E+01 9.999918109E-01 5.735453504E-07 1.087580679E-01
1.150000000E+01 9.999919585E-01 5.240375311E-07 1.078123456E-01
1.160000000E+01 9.999920977E-01 5.071611547E-07 1.068829288E-01
1.170000000E+01 9.999922333E-01 4.909151309E-07 1.059693995E-01
1.180000000E+01 9.999923655E-01 4.755062237E-07 1.050713538E-01
1.190000000E+01 9.999924932E-01 4.675481010E-07 1.041884012E-01
1.200000000E+01 9.999926178E-01 4.597881013E-07 1.033201645E-01
1.210000000E+01 9.999927393E-01 4.522197021E-07 1.024662789E-01
1.220000000E+01 9.999928633E-01 4.194764567E-07 1.016263914E-01
1.230000000E+01 9.999929801E-01 4.067489509E-07 1.008001605E-01
1.240000000E+01 9.999930941E-01 3.944699715E-07 9.998725601E-02
1.250000000E+01 9.999932053E-01 3.826207385E-07 9.918735797E-02
1.260000000E+01 9.999933139E-01 3.711833900E-07 9.840015671E-02
1.270000000E+01 9.999934189E-01 3.649557038E-07 9.762535233E-02
1.280000000E+01 9.999935213E-01 3.592755460E-07 9.686265426E-02
1.290000000E+01 9.999936213E-01 3.537269723E-07 9.611178098E-02
1.300000000E+01 9.999937191E-01 3.483059495E-07 9.537245958E-02
1.310000000E+01 9.999938207E-01 3.209885403E-07 9.464442554E-02
1.320000000E+01 9.999939151E-01 3.119357265E-07 9.392742232E-02
1.330000000E+01 9.999940074E-01 3.031801887E-07 9.322120110E-02
1.340000000E+01 9.999940976E-01 2.947103160E-07 9.252552049E-02
1.350000000E+01 9.999941855E-01 2.874119074E-07 9.184014627E-02
1.360000000E+01 9.999942707E-01 2.832008009E-07 9.116485107E-02
1.370000000E+01 9.999943540E-01 2.790815714E-07 9.049941420E-02
1.380000000E+01 9.999944355E-01 2.750515655E-07 8.984362135E-02
1.390000000E+01 9.999945153E-01 2.711082249E-07 8.919726436E-02
1.400000000E+01 9.999945991E-01 2.503263444E-07 8.856014104E-02
1.410000000E+01 9.999946764E-01 2.437419470E-07 8.793205493E-02
1.420000000E+01 9.999947521E-01 2.373598463E-07 8.731281511E-02
1.430000000E+01 9.999948262E-01 2.311726409E-07 8.670223598E-02
1.440000000E+01 9.999948988E-01 2.251732461E-07 8.610013712E-02
1.450000000E+01 9.999949690E-01 2.218940424E-07 8.550634307E-02
1.460000000E+01 9.999950377E-01 2.188648077E-07 8.492068319E-02
1.470000000E+01 9.999951049E-01 2.158971836E-07 8.434299147E-02
1.480000000E+01 9.999951709E-01 2.129895106E-07 8.377310639E-02
1.490000000E+01 9.999952401E-01 1.984571271E-07 8.321087078E-02
1.500000000E+01 9.999953043E-01 1.935753338E-07 8.265613164E-02
1.510000000E+01 9.999953671E-01 1.888343599E-07 8.210874004E-02
1.520000000E+01 9.999954287E-01 1.842293613E-07 8.156855096E-02
1.530000000E+01 9.999954891E-01 1.797556890E-07 8.103542318E-02
1.540000000E+01 9.999955483E-01 1.754088801E-07 8.050921913E-02
1.550000000E+01 9.999956056E-01 1.731179072E-07 7.998980481E-02
1.560000000E+01 9.999956617E-01 1.709055605E-07 7.947704965E-02
1.570000000E+01 9.999957168E-01 1.687353532E-07 7.897082641E-02
1.580000000E+01 9.999957709E-01 1.666062218E-07 7.847101105E-02
1.590000000E+01 9.999958239E-01 1.645171362E-07 7.797748268E-02
1.600000000E+01 9.999958806E-01 1.522470056E-07 7.749012341E-02
1.610000000E+01 9.999959324E-01 1.487475699E-07 7.700881830E-02
1.620000000E+01 9.999959832E-01 1.453423521E-07 7.653345522E-02
1.630000000E+01 9.999960330E-01 1.420283272E-07 7.606392482E-02
1.640000000E+01 9.999960820E-01 1.388025838E-07 7.560012040E-02
1.650000000E+01 9.999961297E-01 1.361989163E-07 7.514193785E-02
1.660000000E+01 9.999961762E-01 1.345629081E-07 7.468927558E-02
1.670000000E+01 9.999962219E-01 1.329562013E-07 7.424203441E-02
1.680000000E+01 9.999962667E-01 1.313781001E-07 7.380011753E-02
1.690000000E+01 9.999963108E-01 1.298279296E-07 7.336343045E-02
1.700000000E+01 9.999963540E-01 1.283050345E-07 7.293188086E-02
1.710000000E+01 9.999964008E-01 1.189110575E-07 7.250537863E-02
1.720000000E+01 9.999964432E-01 1.163591022E-07 7.208383573E-02
1.730000000E+01 9.999964848E-01 1.138714425E-07 7.166716616E-02
1.740000000E+01 9.999965257E-01 1.114461450E-07 7.125528590E-02
1.750000000E+01 9.999965659E-01 1.090813442E-07 7.084811283E-02
1.760000000E+01 9.999966053E-01 1.067870249E-07 7.044556674E-02
1.770000000E+01 9.999966436E-01 1.055838004E-07 7.004756919E-02
1.780000000E+01 9.999966812E-01 1.044007980E-07 6.965404352E-02
1.790000000E+01 9.999967182E-01 1.032375670E-07 6.926491478E-02
1.800000000E+01 9.999967545E-01 1.020936692E-07 6.888010970E-02
1.810000000E+01 9.999967903E-01 1.009686787E-07 6.849955661E-02
1.820000000E+01 9.999968289E-01 9.439236827E-08 6.812318542E-02
1.830000000E+01 9.999968640E-01 9.249802037E-08 6.775092757E-02
1.840000000E+01 9.999968985E-01 9.064847216E-08 6.738271601E-02
1.850000000E+01 9.999969325E-01 8.884245743E-08 6.701848511E-02
1.860000000E+01 9.999969659E-01 8.707875189E-08 6.665817068E-02
1.870000000E+01 9.999969988E-01 8.535617164E-08 6.630170987E-02
1.880000000E+01 9.999970311E-01 8.367357158E-08 6.594904120E-02
1.890000000E+01 9.999970625E-01 8.268357612E-08 6.560010448E-02
1.900000000E+01 9.999970933E-01 8.181551309E-08 6.525484077E-02
1.910000000E+01 9.999971237E-01 8.096104883E-08 6.491319239E-02
1.920000000E+01 9.999971536E-01 8.011990078E-08 6.457510284E-02
1.930000000E+01 9.999971830E-01 7.929179367E-08 6.424051682E-02
1.940000000E+01 9.999972120E-01 7.847645931E-08 6.390938013E-02
1.950000000E+01 9.999972438E-01 7.304248132E-08 6.358163972E-02
1.960000000E+01 9.999972723E-01 7.165763326E-08 6.325724360E-02
1.970000000E+01 9.999973004E-01 7.030351429E-08 6.293614084E-02
1.980000000E+01 9.999973281E-01 6.897931083E-08 6.261828154E-02
1.990000000E+01 9.999973553E-01 6.768423456E-08 6.230361681E-02
2.000000000E+01 9.999973821E-01 6.641752148E-08 6.199209873E-02
2.010000000E+01 9.999974085E-01 6.517843106E-08 6.168368033E-02
2.020000000E+01 9.999974341E-01 6.447199978E-08 6.137831557E-02
2.030000000E+01 9.999974594E-01 6.383837217E-08 6.107595934E-02
2.040000000E+01 9.999974842E-01 6.321403977E-08 6.077656738E-02
2.050000000E+01 9.999975087E-01 6.259882163E-08 6.048009632E-02
2.060000000E+01 9.999975328E-01 6.199254121E-08 6.018650362E-02
2.070000000E+01 9.999975566E-01 6.139502623E-08 5.989574756E-02
2.080000000E+01 9.999975831E-01 5.737467547E-08 5.960778724E-02
2.090000000E+01 9.999976066E-01 5.635230789E-08 5.932258252E-02
2.100000000E+01 9.999976297E-01 5.535124303E-08 5.904009403E-02
2.110000000E+01 9.999976525E-01 5.437095129E-08 5.876028316E-02
2.120000000E+01 9.999976750E-01 5.341091848E-08 5.848311201E-02
2.130000000E+01 9.999976972E-01 5.247064534E-08 5.820854341E-02
2.140000000E+01 9.999977190E-01 5.154964703E-08 5.793654087E-02
2.150000000E+01 9.999977406E-01 5.065206264E-08 5.766706859E-02
2.160000000E+01 9.999977614E-01 5.018414771E-08 5.740009142E-02
2.170000000E+01 9.999977820E-01 4.972268673E-08 5.713557487E-02
2.180000000E+01 9.999978023E-01 4.926756156E-08 5.687348507E-02
2.190000000E+01 9.999978224E-01 4.881865673E-08 5.661378879E-02
2.200000000E+01 9.999978421E-01 4.837585941E-08 5.635645339E-02
2.210000000E+01 9.999978616E-01 4.793905930E-08 5.610144681E-02
2.220000000E+01 9.999978808E-01 4.750814860E-08 5.584873759E-02
2.230000000E+01 9.999979030E-01 4.410894323E-08 5.559829482E-02
2.240000000E+01 9.999979221E-01 4.336284862E-08 5.535008815E-02
2.250000000E+01 9.999979409E-01 4.263135708E-08 5.510408776E-02
2.260000000E+01 9.999979594E-01 4.191412848E-08 5.486026436E-02
2.270000000E+01 9.999979777E-01 4.121083198E-08 5.461858919E-02
2.280000000E+01 9.999979958E-01 4.052114571E-08 5.437903397E-02
2.290000000E+01 9.999980136E-01 3.984475650E-08 5.414157094E-02
2.300000000E+01 9.999980311E-01 3.924050521E-08 5.390617281E-02
2.310000000E+01 9.999980482E-01 3.890149595E-08 5.367281275E-02
2.320000000E+01 9.999980649E-01 3.856686098E-08 5.344146442E-02
2.330000000E+01 9.999980815E-01 3.823652537E-08 5.321210191E-02
2.340000000E+01 9.999980979E-01 3.791041577E-08 5.298469977E-02
2.350000000E+01 9.999981140E-01 3.758846040E-08 5.275923296E-02
2.360000000E+01 9.999981300E-01 3.727058901E-08 5.253567689E-02
2.370000000E+01 9.999981457E-01 3.695673282E-08 5.231400737E-02
2.380000000E+01 9.999981645E-01 3.445169332E-08 5.209420061E-02
2.390000000E+01 9.999981802E-01 3.390832820E-08 5.187623325E-02
2.400000000E+01 9.999981957E-01 3.337491692E-08 5.166008227E-02
2.410000000E+01 9.999982110E-01 3.285124223E-08 5.144572509E-02
2.420000000E+01 9.999982261E-01 3.233709243E-08 5.123313945E-02
2.430000000E+01 9.999982411E-01 3.183226123E-08 5.102230348E-02
2.440000000E+01 9.999982558E-01 3.133654754E-08 5.081319568E-02
2.450000000E+01 9.999982704E-01 3.084975539E-08 5.060579488E-02
2.460000000E+01 9.999982846E-01 3.043803486E-08 5.040008027E-02
2.470000000E+01 9.999982985E-01 3.019207195E-08 5.019603136E-02
2.480000000E+01 9.999983122E-01 2.994907839E-08 4.999362801E-02
2.490000000E+01 9.999983257E-01 2.970900659E-08 4.979285038E-02
2.500000000E+01 9.999983391E-01 2.947180988E-08 4.959367898E-02
2.510000000E+01 9.999983523E-01 2.923744254E-08 4.939609460E-02
2.520000000E+01 9.999983653E-01 2.900585975E-08 4.920007836E-02
2.530000000E+01 9.999983782E-01 2.877701757E-08 4.900561164E-02
2.540000000E+01 9.999983944E-01 2.693196980E-08 4.881267616E-02
2.550000000E+01 9.999984074E-01 2.653450568E-08 4.862125391E-02
2.560000000E+01 9.999984202E-01 2.614386472E-08 4.843132713E-02
2.570000000E+01 9.999984329E-01 2.575990728E-08 4.824287839E-02
2.580000000E+01 9.999984454E-01 2.538249708E-08 4.805589049E-02
2.590000000E+01 9.999984577E-01 2.501150108E-08 4.787034651E-02
2.600000000E+01 9.999984699E-01 2.464678943E-08 4.768622979E-02
2.610000000E+01 9.999984820E-01 2.428823533E-08 4.750352393E-02
2.620000000E+01 9.999984939E-01 2.393571500E-08 4.732221277E-02
2.630000000E+01 9.999985056E-01 2.365118192E-08 4.714228040E-02
2.640000000E+01 9.999985169E-01 2.347234565E-08 4.696371116E-02
2.650000000E+01 9.999985280E-01 2.329553011E-08 4.678648961E-02
2.660000000E+01 9.999985391E-01 2.312070499E-08 4.661060055E-02
2.670000000E+01 9.999985500E-01 2.294784051E-08 4.643602901E-02
2.680000000E+01 9.999985608E-01 2.277690747E-08 4.626276025E-02
2.690000000E+01 9.999985715E-01 2.260787720E-08 4.609077972E-02
2.700000000E+01 9.999985821E-01 2.244072157E-08 4.592007313E-02
2.710000000E+01 9.999985925E-01 2.227541295E-08 4.575062637E-02
2.720000000E+01 9.999986073E-01 2.069785752E-08 4.558242554E-02
2.730000000E+01 9.999986179E-01 2.040249799E-08 4.541545694E-02
2.740000000E+01 9.999986285E-01 2.011193450E-08 4.524970710E-02
2.750000000E+01 9.999986389E-01 1.982607472E-08 4.508516271E-02
2.760000000E+01 9.999986491E-01 1.954482843E-08 4.492181067E-02
2.770000000E+01 9.999986593E-01 1.926810739E-08 4.475963807E-02
2.780000000E+01 9.999986694E-01 1.899582538E-08 4.459863218E-02
2.790000000E+01 9.999986793E-01 1.872789806E-08 4.443878045E-02
2.800000000E+01 9.999986891E-01 1.846424299E-08 4.428007052E-02
2.810000000E+01 9.999986988E-01 1.823531463E-08 4.412249020E-02
2.820000000E+01 9.999987080E-01 1.810621546E-08 4.396602747E-02
2.830000000E+01 9.999987171E-01 1.797848242E-08 4.381067048E-02
2.840000000E+01 9.999987261E-01 1.785209629E-08 4.365640756E-02
2.850000000E+01 9.999987350E-01 1.772703820E-08 4.350322718E-02
2.860000000E+01 9.999987439E-01 1.760328963E-08 4.335111799E-02
2.870000000E+01 9.999987526E-01 1.748083233E-08 4.320006880E-02
2.880000000E+01 9.999987612E-01 1.735964842E-08 4.305006856E-02
2.890000000E+01 9.999987698E-01 1.723972029E-08 4.290110639E-02
2.900000000E+01 9.999987783E-01 1.712103066E-08 4.275317154E-02
2.910000000E+01 9.999987943E-01 1.587315654E-08 4.260625342E-02
2.920000000E+01 9.999988033E-01 1.565919225E-08 4.246034160E-02
2.930000000E+01 9.999988121E-01 1.544848896E-08 4.231542575E-02
2.940000000E+01 9.999988209E-01 1.524098783E-08 4.217149573E-02
2.950000000E+01 9.999988296E-01 1.503663127E-08 4.202854151E-02
2.960000000E+01 9.999988381E-01 1.483536292E-08 4.188655320E-02
2.970000000E+01 9.999988466E-01 1.463712756E-08 4.174552103E-02
2.980000000E+01 9.999988550E-01 1.444187116E-08 4.160543539E-02
2.990000000E+01 9.999988633E-01 1.424954080E-08 4.146628678E-02
3.000000000E+01 9.999988715E-01 1.406008466E-08 4.132806582E-02
3.010000000E+01 9.999988791E-01 1.395453264E-08 4.119076328E-02
3.020000000E+01 9.999988865E-01 1.386227152E-08 4.105437002E-02
3.030000000E+01 9.999988938E-01 1.377092237E-08 4.091887705E-02
3.040000000E+01 9.999989011E-01 1.368047321E-08 4.078427548E-02
3.050000000E+01 9.999989083E-01 1.359091225E-08 4.065055654E-02
3.060000000E+01 9.999989252E-01 1.300837379E-08 4.051771159E-02
3.070000000E+01 9.999989339E-01 1.284203548E-08 4.038573207E-02
3.080000000E+01 9.999989424E-01 1.267810693E-08 4.025460956E-02
3.090000000E+01 9.999989508E-01 1.251654679E-08 4.012433575E-02
3.100000000E+01 9.999989591E-01 1.235731454E-08 3.999490241E-02
3.110000000E+01 9.999989673E-01 1.220037048E-08 3.986630143E-02
3.120000000E+01 9.999989751E-01 1.206454764E-08 3.973852483E-02
3.130000000E+01 9.999989816E-01 1.198758103E-08 3.961156468E-02
3.140000000E+01 9.999989881E-01 1.191134859E-08 3.948541320E-02
3.150000000E+01 9.999990119E-01 1.160181187E-08 3.936006269E-02
3.160000000E+01 9.999990234E-01 1.145783975E-08 3.923550552E-02
3.170000000E+01 9.999990323E-01 1.134873850E-08 3.911173421E-02
3.180000000E+01 9.999990684E-01 1.119033755E-08 3.898874134E-02
3.190000000E+01 9.999990554E-01 4.768048828E-08 3.886651958E-02
3.200000000E+01 9.999990500E-01 6.929140456E-08 3.874506171E-02
3.210000000E+01 9.999990457E-01 6.846429996E-08 3.862436058E-02
3.220000000E+01 9.999990516E-01 6.803971618E-08 3.850440915E-02
3.230000000E+01 9.999990477E-01 6.688219206E-08 3.838520045E-02
3.240000000E+01 9.999990490E-01 6.612946556E-08 3.826672761E-02
3.250000000E+01 9.999990527E-01 6.556109834E-08 3.814898383E-02
3.260000000E+01 9.999990585E-01 6.515949990E-08 3.803196241E-02
3.270000000E+01 9.999990643E-01 6.476158022E-08 3.791565672E-02
