# 08/03/2022 
# Density retrieved from www.chemicool.com/densities.html 
# Includes the real (n) and complex (k) part of the  refractive index. 
# Element, Ti  (Z = 22) 
# Nominal density, g cm-3 =  4.5 
#    E [keV]      n       k    Wavelength [nm] 
2.000000000E+00 9.997885220E-01 2.161545814E-05 6.199209873E-01
2.100000000E+00 9.998087681E-01 1.755395845E-05 5.904009403E-01
2.200000000E+00 9.998262432E-01 1.460360401E-05 5.635645339E-01
2.300000000E+00 9.998413954E-01 1.241083346E-05 5.390617281E-01
2.400000000E+00 9.998545907E-01 1.077198729E-05 5.166008227E-01
2.500000000E+00 9.998663835E-01 9.129752986E-06 4.959367898E-01
2.600000000E+00 9.998765801E-01 8.205292102E-06 4.768622979E-01
2.700000000E+00 9.998859816E-01 6.882220968E-06 4.592007313E-01
2.800000000E+00 9.998940208E-01 6.330892319E-06 4.428007052E-01
2.900000000E+00 9.999016236E-01 5.301831590E-06 4.275317154E-01
3.000000000E+00 9.999080827E-01 4.940007222E-06 4.132806582E-01
3.100000000E+00 9.999143049E-01 4.119763440E-06 3.999490241E-01
3.200000000E+00 9.999195859E-01 3.854807916E-06 3.874506171E-01
3.300000000E+00 9.999247723E-01 3.229440742E-06 3.757096893E-01
3.400000000E+00 9.999291665E-01 3.007387403E-06 3.646594043E-01
3.500000000E+00 9.999335165E-01 2.569459980E-06 3.542405642E-01
3.600000000E+00 9.999372443E-01 2.364900918E-06 3.444005485E-01
3.700000000E+00 9.999409044E-01 2.071503727E-06 3.350924256E-01
3.800000000E+00 9.999441441E-01 1.873096610E-06 3.262742038E-01
3.900000000E+00 9.999469718E-01 1.778271864E-06 3.179081986E-01
4.000000000E+00 9.999500304E-01 1.532192441E-06 3.099604936E-01
4.100000000E+00 9.999525411E-01 1.421361703E-06 3.024004816E-01
4.200000000E+00 9.999551598E-01 1.270560932E-06 2.952004701E-01
4.300000000E+00 9.999574595E-01 1.160295784E-06 2.883353429E-01
4.400000000E+00 9.999594486E-01 1.091306855E-06 2.817822670E-01
4.500000000E+00 9.999618776E-01 9.750913550E-07 2.755204388E-01
4.600000000E+00 9.999638708E-01 8.958252681E-07 2.695308640E-01
4.700000000E+00 9.999655011E-01 8.465826148E-07 2.637961648E-01
4.800000000E+00 9.999683896E-01 7.617769833E-07 2.583004114E-01
4.900000000E+00 9.999702112E-01 7.124630686E-07 2.530289744E-01
5.000000000E+00 9.999736541E-01 6.167751197E-06 2.479683949E-01
5.100000000E+00 9.999721964E-01 5.767426844E-06 2.431062695E-01
5.200000000E+00 9.999720005E-01 5.294862747E-06 2.384311490E-01
5.300000000E+00 9.999722256E-01 4.931402965E-06 2.339324480E-01
5.400000000E+00 9.999732448E-01 4.750449564E-06 2.296003657E-01
5.500000000E+00 9.999735538E-01 4.308958236E-06 2.254258136E-01
5.600000000E+00 9.999741967E-01 4.035433668E-06 2.214003526E-01
5.700000000E+00 9.999749253E-01 3.825435412E-06 2.175161359E-01
5.800000000E+00 9.999757825E-01 3.694661015E-06 2.137658577E-01
5.900000000E+00 9.999762526E-01 3.348457808E-06 2.101427076E-01
6.000000000E+00 9.999769061E-01 3.152882133E-06 2.066403291E-01
6.100000000E+00 9.999775938E-01 3.009545907E-06 2.032527827E-01
6.200000000E+00 9.999783108E-01 2.913246701E-06 1.999745120E-01
6.300000000E+00 9.999787968E-01 2.651798652E-06 1.968003134E-01
6.400000000E+00 9.999793817E-01 2.507149913E-06 1.937253085E-01
6.500000000E+00 9.999799649E-01 2.390738700E-06 1.907449192E-01
6.600000000E+00 9.999805675E-01 2.318840911E-06 1.878548446E-01
6.700000000E+00 9.999810368E-01 2.124758265E-06 1.850510410E-01
6.800000000E+00 9.999815482E-01 2.012906540E-06 1.823297021E-01
6.900000000E+00 9.999820392E-01 1.908001876E-06 1.796872427E-01
7.000000000E+00 9.999825431E-01 1.847187148E-06 1.771202821E-01
7.100000000E+00 9.999830313E-01 1.795520140E-06 1.746256302E-01
7.200000000E+00 9.999834267E-01 1.633765902E-06 1.722002742E-01
7.300000000E+00 9.999838542E-01 1.553039194E-06 1.698413664E-01
7.400000000E+00 9.999842668E-01 1.479305214E-06 1.675462128E-01
7.500000000E+00 9.999846836E-01 1.440120062E-06 1.653122633E-01
7.600000000E+00 9.999850840E-01 1.402471494E-06 1.631371019E-01
7.700000000E+00 9.999854240E-01 1.276948984E-06 1.610184383E-01
7.800000000E+00 9.999857818E-01 1.217519917E-06 1.589540993E-01
7.900000000E+00 9.999861266E-01 1.161335457E-06 1.569420221E-01
8.000000000E+00 9.999864710E-01 1.131963049E-06 1.549802468E-01
8.100000000E+00 9.999868030E-01 1.104185873E-06 1.530669104E-01
8.200000000E+00 9.999870976E-01 1.013000959E-06 1.512002408E-01
8.300000000E+00 9.999873987E-01 9.686430166E-07 1.493785512E-01
8.400000000E+00 9.999876894E-01 9.265647886E-07 1.476002351E-01
8.500000000E+00 9.999879740E-01 8.964745226E-07 1.458637617E-01
8.600000000E+00 9.999882521E-01 8.757474886E-07 1.441676715E-01
8.700000000E+00 9.999885206E-01 8.557310643E-07 1.425105718E-01
8.800000000E+00 9.999887627E-01 7.807319970E-07 1.408911335E-01
8.900000000E+00 9.999890093E-01 7.487070514E-07 1.393080870E-01
9.000000000E+00 9.999892478E-01 7.182215736E-07 1.377602194E-01
9.100000000E+00 9.999894816E-01 6.984691068E-07 1.362463708E-01
9.200000000E+00 9.999897090E-01 6.833675181E-07 1.347654320E-01
9.300000000E+00 9.999899291E-01 6.687504536E-07 1.333163414E-01
9.400000000E+00 9.999901325E-01 6.108268251E-07 1.318980824E-01
9.500000000E+00 9.999903367E-01 5.870206738E-07 1.305096815E-01
9.600000000E+00 9.999905346E-01 5.642934307E-07 1.291502057E-01
9.700000000E+00 9.999907275E-01 5.470099236E-07 1.278187603E-01
9.800000000E+00 9.999909158E-01 5.359034122E-07 1.265144872E-01
9.900000000E+00 9.999910984E-01 5.251317591E-07 1.252365631E-01
1.000000000E+01 9.999912629E-01 4.835832944E-07 1.239841975E-01
1.010000000E+01 9.999914316E-01 4.655799862E-07 1.227566311E-01
1.020000000E+01 9.999915954E-01 4.483491985E-07 1.215531348E-01
1.030000000E+01 9.999917547E-01 4.318516767E-07 1.203730072E-01
1.040000000E+01 9.999919117E-01 4.218091596E-07 1.192155745E-01
1.050000000E+01 9.999920651E-01 4.138129587E-07 1.180801881E-01
1.060000000E+01 9.999922141E-01 4.060419963E-07 1.169662240E-01
1.070000000E+01 9.999923579E-01 3.730057129E-07 1.158730817E-01
1.080000000E+01 9.999924985E-01 3.597813804E-07 1.148001828E-01
1.090000000E+01 9.999926353E-01 3.470916920E-07 1.137469701E-01
1.100000000E+01 9.999927684E-01 3.349111130E-07 1.127129068E-01
1.110000000E+01 9.999928980E-01 3.271509924E-07 1.116974752E-01
1.120000000E+01 9.999930243E-01 3.213350907E-07 1.107001763E-01
1.130000000E+01 9.999931472E-01 3.156729092E-07 1.097205287E-01
1.140000000E+01 9.999932669E-01 3.101590780E-07 1.087580679E-01
1.150000000E+01 9.999933843E-01 2.824448632E-07 1.078123456E-01
1.160000000E+01 9.999934981E-01 2.731472150E-07 1.068829288E-01
1.170000000E+01 9.999936089E-01 2.641995658E-07 1.059693995E-01
1.180000000E+01 9.999937169E-01 2.557188464E-07 1.050713538E-01
1.190000000E+01 9.999938221E-01 2.514391087E-07 1.041884012E-01
1.200000000E+01 9.999939246E-01 2.472659179E-07 1.033201645E-01
1.210000000E+01 9.999940246E-01 2.431957665E-07 1.024662789E-01
1.220000000E+01 9.999941237E-01 2.248945575E-07 1.016263914E-01
1.230000000E+01 9.999942192E-01 2.178991003E-07 1.008001605E-01
1.240000000E+01 9.999943124E-01 2.111523603E-07 9.998725601E-02
1.250000000E+01 9.999944034E-01 2.046438761E-07 9.918735797E-02
1.260000000E+01 9.999944922E-01 1.983636992E-07 9.840015671E-02
1.270000000E+01 9.999945786E-01 1.950231345E-07 9.762535233E-02
1.280000000E+01 9.999946630E-01 1.919878013E-07 9.686265426E-02
1.290000000E+01 9.999947454E-01 1.890227833E-07 9.611178098E-02
1.300000000E+01 9.999948259E-01 1.861259253E-07 9.537245958E-02
1.310000000E+01 9.999949067E-01 1.708444318E-07 9.464442554E-02
1.320000000E+01 9.999949840E-01 1.658864988E-07 9.392742232E-02
1.330000000E+01 9.999950595E-01 1.610930408E-07 9.322120110E-02
1.340000000E+01 9.999951333E-01 1.564576001E-07 9.252552049E-02
1.350000000E+01 9.999952054E-01 1.524811345E-07 9.184014627E-02
1.360000000E+01 9.999952757E-01 1.502470088E-07 9.116485107E-02
1.370000000E+01 9.999953444E-01 1.480616269E-07 9.049941420E-02
1.380000000E+01 9.999954116E-01 1.459235809E-07 8.984362135E-02
1.390000000E+01 9.999954774E-01 1.438315137E-07 8.919726436E-02
1.400000000E+01 9.999955439E-01 1.322219556E-07 8.856014104E-02
1.410000000E+01 9.999956072E-01 1.286318340E-07 8.793205493E-02
1.420000000E+01 9.999956693E-01 1.251532749E-07 8.731281511E-02
1.430000000E+01 9.999957300E-01 1.217821729E-07 8.670223598E-02
1.440000000E+01 9.999957894E-01 1.185145983E-07 8.610013712E-02
1.450000000E+01 9.999958473E-01 1.167815395E-07 8.550634307E-02
1.460000000E+01 9.999959040E-01 1.151872709E-07 8.492068319E-02
1.470000000E+01 9.999959595E-01 1.136254277E-07 8.434299147E-02
1.480000000E+01 9.999960140E-01 1.120951364E-07 8.377310639E-02
1.490000000E+01 9.999960691E-01 1.039982514E-07 8.321087078E-02
1.500000000E+01 9.999961217E-01 1.013487738E-07 8.265613164E-02
1.510000000E+01 9.999961732E-01 9.877669237E-08 8.210874004E-02
1.520000000E+01 9.999962237E-01 9.627932730E-08 8.156855096E-02
1.530000000E+01 9.999962732E-01 9.385410725E-08 8.103542318E-02
1.540000000E+01 9.999963218E-01 9.149856417E-08 8.050921913E-02
1.550000000E+01 9.999963691E-01 9.030201936E-08 7.998980481E-02
1.560000000E+01 9.999964155E-01 8.914801180E-08 7.947704965E-02
1.570000000E+01 9.999964610E-01 8.801598504E-08 7.897082641E-02
1.580000000E+01 9.999965057E-01 8.690538436E-08 7.847101105E-02
1.590000000E+01 9.999965495E-01 8.581567245E-08 7.797748268E-02
1.600000000E+01 9.999965943E-01 7.902618891E-08 7.749012341E-02
1.610000000E+01 9.999966368E-01 7.714417381E-08 7.700881830E-02
1.620000000E+01 9.999966785E-01 7.531347786E-08 7.653345522E-02
1.630000000E+01 9.999967194E-01 7.353244255E-08 7.606392482E-02
1.640000000E+01 9.999967595E-01 7.179947196E-08 7.560012040E-02
1.650000000E+01 9.999967988E-01 7.041336089E-08 7.514193785E-02
1.660000000E+01 9.999968373E-01 6.956756243E-08 7.468927558E-02
1.670000000E+01 9.999968751E-01 6.873691241E-08 7.424203441E-02
1.680000000E+01 9.999969121E-01 6.792105124E-08 7.380011753E-02
1.690000000E+01 9.999969486E-01 6.711962993E-08 7.336343045E-02
1.700000000E+01 9.999969844E-01 6.633230970E-08 7.293188086E-02
1.710000000E+01 9.999970211E-01 6.115848624E-08 7.250537863E-02
1.720000000E+01 9.999970559E-01 5.979570194E-08 7.208383573E-02
1.730000000E+01 9.999970901E-01 5.846771932E-08 7.166716616E-02
1.740000000E+01 9.999971237E-01 5.717348452E-08 7.125528590E-02
1.750000000E+01 9.999971567E-01 5.591198096E-08 7.084811283E-02
1.760000000E+01 9.999971891E-01 5.468879375E-08 7.044556674E-02
1.770000000E+01 9.999972208E-01 5.407258691E-08 7.004756919E-02
1.780000000E+01 9.999972519E-01 5.346673637E-08 6.965404352E-02
1.790000000E+01 9.999972825E-01 5.287101137E-08 6.926491478E-02
1.800000000E+01 9.999973126E-01 5.228518751E-08 6.888010970E-02
1.810000000E+01 9.999973423E-01 5.170904659E-08 6.849955661E-02
1.820000000E+01 9.999973726E-01 4.810074309E-08 6.812318542E-02
1.830000000E+01 9.999974015E-01 4.709517307E-08 6.775092757E-02
1.840000000E+01 9.999974298E-01 4.611373736E-08 6.738271601E-02
1.850000000E+01 9.999974577E-01 4.515574860E-08 6.701848511E-02
1.860000000E+01 9.999974852E-01 4.422054232E-08 6.665817068E-02
1.870000000E+01 9.999975122E-01 4.330747608E-08 6.630170987E-02
1.880000000E+01 9.999975387E-01 4.241592856E-08 6.594904120E-02
1.890000000E+01 9.999975647E-01 4.190882381E-08 6.560010448E-02
1.900000000E+01 9.999975903E-01 4.146883920E-08 6.525484077E-02
1.910000000E+01 9.999976155E-01 4.103574725E-08 6.491319239E-02
1.920000000E+01 9.999976402E-01 4.060940471E-08 6.457510284E-02
1.930000000E+01 9.999976646E-01 4.018967208E-08 6.424051682E-02
1.940000000E+01 9.999976886E-01 3.977641341E-08 6.390938013E-02
1.950000000E+01 9.999977134E-01 3.687344141E-08 6.358163972E-02
1.960000000E+01 9.999977368E-01 3.615243643E-08 6.325724360E-02
1.970000000E+01 9.999977599E-01 3.544760790E-08 6.293614084E-02
1.980000000E+01 9.999977826E-01 3.475852509E-08 6.261828154E-02
1.990000000E+01 9.999978050E-01 3.408477070E-08 6.230361681E-02
2.000000000E+01 9.999978270E-01 3.342594033E-08 6.199209873E-02
2.010000000E+01 9.999978487E-01 3.278164207E-08 6.168368033E-02
2.020000000E+01 9.999978700E-01 3.242408259E-08 6.137831557E-02
2.030000000E+01 9.999978909E-01 3.210542032E-08 6.107595934E-02
2.040000000E+01 9.999979116E-01 3.179143276E-08 6.077656738E-02
2.050000000E+01 9.999979319E-01 3.148202893E-08 6.048009632E-02
2.060000000E+01 9.999979519E-01 3.117712004E-08 6.018650362E-02
2.070000000E+01 9.999979717E-01 3.087661943E-08 5.989574756E-02
2.080000000E+01 9.999979920E-01 2.875704508E-08 5.960778724E-02
2.090000000E+01 9.999980113E-01 2.823030124E-08 5.932258252E-02
2.100000000E+01 9.999980303E-01 2.771464178E-08 5.904009403E-02
2.110000000E+01 9.999980490E-01 2.720978973E-08 5.876028316E-02
2.120000000E+01 9.999980675E-01 2.671547622E-08 5.848311201E-02
2.130000000E+01 9.999980857E-01 2.623144019E-08 5.820854341E-02
2.140000000E+01 9.999981037E-01 2.575742815E-08 5.793654087E-02
2.150000000E+01 9.999981214E-01 2.529564359E-08 5.766706859E-02
2.160000000E+01 9.999981387E-01 2.506196684E-08 5.740009142E-02
2.170000000E+01 9.999981559E-01 2.483151320E-08 5.713557487E-02
2.180000000E+01 9.999981727E-01 2.460422365E-08 5.687348507E-02
2.190000000E+01 9.999981894E-01 2.438004055E-08 5.661378879E-02
2.200000000E+01 9.999982058E-01 2.415890754E-08 5.635645339E-02
2.210000000E+01 9.999982220E-01 2.394076953E-08 5.610144681E-02
2.220000000E+01 9.999982380E-01 2.372557270E-08 5.584873759E-02
2.230000000E+01 9.999982545E-01 2.192000742E-08 5.559829482E-02
2.240000000E+01 9.999982702E-01 2.153554566E-08 5.535008815E-02
2.250000000E+01 9.999982856E-01 2.115870434E-08 5.510408776E-02
2.260000000E+01 9.999983009E-01 2.078930482E-08 5.486026436E-02
2.270000000E+01 9.999983159E-01 2.042717336E-08 5.461858919E-02
2.280000000E+01 9.999983307E-01 2.007214097E-08 5.437903397E-02
2.290000000E+01 9.999983453E-01 1.972404321E-08 5.414157094E-02
2.300000000E+01 9.999983598E-01 1.941440526E-08 5.390617281E-02
2.310000000E+01 9.999983739E-01 1.924667901E-08 5.367281275E-02
2.320000000E+01 9.999983879E-01 1.908111695E-08 5.344146442E-02
2.330000000E+01 9.999984017E-01 1.891768201E-08 5.321210191E-02
2.340000000E+01 9.999984154E-01 1.875633791E-08 5.298469977E-02
2.350000000E+01 9.999984288E-01 1.859704914E-08 5.275923296E-02
2.360000000E+01 9.999984421E-01 1.843978093E-08 5.253567689E-02
2.370000000E+01 9.999984552E-01 1.828449925E-08 5.231400737E-02
2.380000000E+01 9.999984688E-01 1.695715592E-08 5.209420061E-02
2.390000000E+01 9.999984817E-01 1.667881298E-08 5.187623325E-02
2.400000000E+01 9.999984944E-01 1.640564064E-08 5.166008227E-02
2.410000000E+01 9.999985069E-01 1.613752525E-08 5.144572509E-02
2.420000000E+01 9.999985193E-01 1.587435608E-08 5.123313945E-02
2.430000000E+01 9.999985316E-01 1.561602521E-08 5.102230348E-02
2.440000000E+01 9.999985436E-01 1.536242749E-08 5.081319568E-02
2.450000000E+01 9.999985556E-01 1.511346043E-08 5.060579488E-02
2.460000000E+01 9.999985673E-01 1.490450516E-08 5.040008027E-02
2.470000000E+01 9.999985789E-01 1.478406521E-08 5.019603136E-02
2.480000000E+01 9.999985904E-01 1.466507925E-08 4.999362801E-02
2.490000000E+01 9.999986017E-01 1.454752398E-08 4.979285038E-02
2.500000000E+01 9.999986128E-01 1.443137655E-08 4.959367898E-02
2.510000000E+01 9.999986239E-01 1.431661456E-08 4.939609460E-02
2.520000000E+01 9.999986348E-01 1.420321608E-08 4.920007836E-02
2.530000000E+01 9.999986455E-01 1.409115959E-08 4.900561164E-02
2.540000000E+01 9.999986567E-01 1.311805765E-08 4.881267616E-02
2.550000000E+01 9.999986673E-01 1.291594841E-08 4.862125391E-02
2.560000000E+01 9.999986777E-01 1.271736132E-08 4.843132713E-02
2.570000000E+01 9.999986881E-01 1.252222375E-08 4.824287839E-02
2.580000000E+01 9.999986983E-01 1.233046482E-08 4.805589049E-02
2.590000000E+01 9.999987084E-01 1.214201533E-08 4.787034651E-02
2.600000000E+01 9.999987183E-01 1.195680776E-08 4.768622979E-02
2.610000000E+01 9.999987282E-01 1.177477619E-08 4.750352393E-02
2.620000000E+01 9.999987379E-01 1.159585626E-08 4.732221277E-02
2.630000000E+01 9.999987475E-01 1.145305126E-08 4.714228040E-02
2.640000000E+01 9.999987570E-01 1.136645005E-08 4.696371116E-02
2.650000000E+01 9.999987664E-01 1.128082738E-08 4.678648961E-02
2.660000000E+01 9.999987756E-01 1.119616856E-08 4.661060055E-02
2.670000000E+01 9.999987848E-01 1.111245918E-08 4.643602901E-02
2.680000000E+01 9.999987938E-01 1.102968510E-08 4.626276025E-02
2.690000000E+01 9.999988028E-01 1.094783243E-08 4.609077972E-02
2.700000000E+01 9.999988116E-01 1.086688756E-08 4.592007313E-02
2.710000000E+01 9.999988204E-01 1.078683709E-08 4.575062637E-02
2.720000000E+01 9.999988295E-01 9.984348332E-09 4.558242554E-02
2.730000000E+01 9.999988381E-01 9.837676052E-09 4.541545694E-02
2.740000000E+01 9.999988466E-01 9.693408838E-09 4.524970710E-02
2.750000000E+01 9.999988550E-01 9.551500169E-09 4.508516271E-02
2.760000000E+01 9.999988633E-01 9.411904573E-09 4.492181067E-02
2.770000000E+01 9.999988716E-01 9.274577599E-09 4.475963807E-02
2.780000000E+01 9.999988797E-01 9.139475797E-09 4.459863218E-02
2.790000000E+01 9.999988878E-01 9.006556685E-09 4.443878045E-02
2.800000000E+01 9.999988957E-01 8.875778728E-09 4.428007052E-02
2.810000000E+01 9.999989036E-01 8.762720530E-09 4.412249020E-02
2.820000000E+01 9.999989114E-01 8.700683766E-09 4.396602747E-02
2.830000000E+01 9.999989190E-01 8.639303472E-09 4.381067048E-02
2.840000000E+01 9.999989266E-01 8.578570420E-09 4.365640756E-02
2.850000000E+01 9.999989342E-01 8.518475541E-09 4.350322718E-02
2.860000000E+01 9.999989416E-01 8.459009925E-09 4.335111799E-02
2.870000000E+01 9.999989490E-01 8.400164817E-09 4.320006880E-02
2.880000000E+01 9.999989563E-01 8.341931614E-09 4.305006856E-02
2.890000000E+01 9.999989635E-01 8.284301862E-09 4.290110639E-02
2.900000000E+01 9.999989706E-01 8.227267251E-09 4.275317154E-02
2.910000000E+01 9.999989781E-01 7.600062213E-09 4.260625342E-02
2.920000000E+01 9.999989851E-01 7.494862981E-09 4.246034160E-02
2.930000000E+01 9.999989920E-01 7.391281300E-09 4.231542575E-02
2.940000000E+01 9.999989989E-01 7.289287858E-09 4.217149573E-02
2.950000000E+01 9.999990057E-01 7.188853965E-09 4.202854151E-02
2.960000000E+01 9.999990125E-01 7.089951535E-09 4.188655320E-02
2.970000000E+01 9.999990191E-01 6.992553073E-09 4.174552103E-02
2.980000000E+01 9.999990257E-01 6.896631659E-09 4.160543539E-02
2.990000000E+01 9.999990323E-01 6.802160935E-09 4.146628678E-02
3.000000000E+01 9.999990388E-01 6.709115092E-09 4.132806582E-02
3.010000000E+01 9.999990451E-01 6.658407588E-09 4.119076328E-02
3.020000000E+01 9.999990514E-01 6.614385179E-09 4.105437002E-02
3.030000000E+01 9.999990577E-01 6.570797916E-09 4.091887705E-02
3.040000000E+01 9.999990639E-01 6.527640082E-09 4.078427548E-02
3.050000000E+01 9.999990700E-01 6.484906056E-09 4.065055654E-02
3.060000000E+01 9.999990761E-01 6.442590305E-09 4.051771159E-02
3.070000000E+01 9.999990821E-01 6.400687390E-09 4.038573207E-02
3.080000000E+01 9.999990880E-01 6.359191957E-09 4.025460956E-02
3.090000000E+01 9.999990939E-01 6.318098740E-09 4.012433575E-02
3.100000000E+01 9.999990998E-01 6.277402558E-09 3.999490241E-02
3.110000000E+01 9.999991059E-01 5.804959932E-09 3.986630143E-02
3.120000000E+01 9.999991116E-01 5.729806039E-09 3.973852483E-02
3.130000000E+01 9.999991173E-01 5.655733815E-09 3.961156468E-02
3.140000000E+01 9.999991230E-01 5.582724908E-09 3.948541320E-02
3.150000000E+01 9.999991286E-01 5.510761327E-09 3.936006269E-02
3.160000000E+01 9.999991341E-01 5.439825440E-09 3.923550552E-02
3.170000000E+01 9.999991396E-01 5.369899957E-09 3.911173421E-02
3.180000000E+01 9.999991450E-01 5.300967932E-09 3.898874134E-02
3.190000000E+01 9.999991504E-01 5.233012749E-09 3.886651958E-02
3.200000000E+01 9.999991557E-01 5.166018114E-09 3.874506171E-02
3.210000000E+01 9.999991610E-01 5.104362232E-09 3.862436058E-02
3.220000000E+01 9.999991662E-01 5.072707349E-09 3.850440915E-02
3.230000000E+01 9.999991713E-01 5.041346019E-09 3.838520045E-02
3.240000000E+01 9.999991764E-01 5.010274623E-09 3.826672761E-02
3.250000000E+01 9.999991815E-01 4.979489598E-09 3.814898383E-02
3.260000000E+01 9.999991865E-01 4.948987436E-09 3.803196241E-02
3.270000000E+01 9.999991915E-01 4.918764683E-09 3.791565672E-02
