# 08/03/2022 
# Density retrieved from www.chemicool.com/densities.html 
# Includes the real (n) and complex (k) part of the  refractive index. 
# Element, V  (Z = 23) 
# Nominal density, g cm-3 =  6.1 
#    E [keV]      n       k    Wavelength [nm] 
2.000000000E+00 9.997168454E-01 3.280366580E-05 6.199209873E-01
2.100000000E+00 9.997437364E-01 2.679011430E-05 5.904009403E-01
2.200000000E+00 9.997670187E-01 2.226270668E-05 5.635645339E-01
2.300000000E+00 9.997872553E-01 1.893779517E-05 5.390617281E-01
2.400000000E+00 9.998049047E-01 1.645797022E-05 5.166008227E-01
2.500000000E+00 9.998206384E-01 1.398071327E-05 4.959367898E-01
2.600000000E+00 9.998342996E-01 1.257527898E-05 4.768622979E-01
2.700000000E+00 9.998468294E-01 1.054156609E-05 4.592007313E-01
2.800000000E+00 9.998576203E-01 9.696465082E-06 4.428007052E-01
2.900000000E+00 9.998677390E-01 8.114587785E-06 4.275317154E-01
3.000000000E+00 9.998764206E-01 7.560654109E-06 4.132806582E-01
3.100000000E+00 9.998846649E-01 6.304362582E-06 3.999490241E-01
3.200000000E+00 9.998917698E-01 5.898885054E-06 3.874506171E-01
3.300000000E+00 9.998986564E-01 4.943195397E-06 3.757096893E-01
3.400000000E+00 9.999045678E-01 4.603433550E-06 3.646594043E-01
3.500000000E+00 9.999103259E-01 3.934090599E-06 3.542405642E-01
3.600000000E+00 9.999153295E-01 3.621152401E-06 3.444005485E-01
3.700000000E+00 9.999201578E-01 3.172516343E-06 3.350924256E-01
3.800000000E+00 9.999244748E-01 2.869016280E-06 3.262742038E-01
3.900000000E+00 9.999282983E-01 2.723773509E-06 3.179081986E-01
4.000000000E+00 9.999322382E-01 2.347440731E-06 3.099604936E-01
4.100000000E+00 9.999355967E-01 2.177790444E-06 3.024004816E-01
4.200000000E+00 9.999389285E-01 1.947077210E-06 2.952004701E-01
4.300000000E+00 9.999419223E-01 1.778325866E-06 2.883353429E-01
4.400000000E+00 9.999445927E-01 1.672666443E-06 2.817822670E-01
4.500000000E+00 9.999474082E-01 1.494826119E-06 2.755204388E-01
4.600000000E+00 9.999498780E-01 1.373477308E-06 2.695308640E-01
4.700000000E+00 9.999520524E-01 1.298032300E-06 2.637961648E-01
4.800000000E+00 9.999545339E-01 1.168489718E-06 2.583004114E-01
4.900000000E+00 9.999566452E-01 1.079931472E-06 2.530289744E-01
5.000000000E+00 9.999584985E-01 1.016606645E-06 2.479683949E-01
5.100000000E+00 9.999601101E-01 9.771305702E-07 2.431062695E-01
5.200000000E+00 9.999630518E-01 8.622531166E-07 2.384311490E-01
5.300000000E+00 9.999649325E-01 8.027431710E-07 2.339324480E-01
5.400000000E+00 9.999683459E-01 7.468395770E-07 2.296003657E-01
5.500000000E+00 9.999705353E-01 6.470601871E-06 2.254258136E-01
5.600000000E+00 9.999689702E-01 6.067662425E-06 2.214003526E-01
5.700000000E+00 9.999689652E-01 5.687238073E-06 2.175161359E-01
5.800000000E+00 9.999700262E-01 5.492817033E-06 2.137658577E-01
5.900000000E+00 9.999698588E-01 4.948166188E-06 2.101427076E-01
6.000000000E+00 9.999704059E-01 4.646942925E-06 2.066403291E-01
6.100000000E+00 9.999711523E-01 4.429654719E-06 2.032527827E-01
6.200000000E+00 9.999720754E-01 4.287914987E-06 1.999745120E-01
6.300000000E+00 9.999724912E-01 3.898460695E-06 1.968003134E-01
6.400000000E+00 9.999731736E-01 3.683994689E-06 1.937253085E-01
6.500000000E+00 9.999738838E-01 3.511752743E-06 1.907449192E-01
6.600000000E+00 9.999746692E-01 3.406142180E-06 1.878548446E-01
6.700000000E+00 9.999751946E-01 3.132236877E-06 1.850510410E-01
6.800000000E+00 9.999758294E-01 2.972054765E-06 1.823297021E-01
6.900000000E+00 9.999764406E-01 2.821710480E-06 1.796872427E-01
7.000000000E+00 9.999770969E-01 2.732436085E-06 1.771202821E-01
7.100000000E+00 9.999777375E-01 2.656008097E-06 1.746256302E-01
7.200000000E+00 9.999781954E-01 2.423205356E-06 1.722002742E-01
7.300000000E+00 9.999787382E-01 2.305706445E-06 1.698413664E-01
7.400000000E+00 9.999792643E-01 2.198258569E-06 1.675462128E-01
7.500000000E+00 9.999798136E-01 2.140029142E-06 1.653122633E-01
7.600000000E+00 9.999803413E-01 2.084083090E-06 1.631371019E-01
7.700000000E+00 9.999807536E-01 1.899471323E-06 1.610184383E-01
7.800000000E+00 9.999812153E-01 1.811687255E-06 1.589540993E-01
7.900000000E+00 9.999816606E-01 1.728683286E-06 1.569420221E-01
8.000000000E+00 9.999821157E-01 1.684974034E-06 1.549802468E-01
8.100000000E+00 9.999825546E-01 1.643626553E-06 1.530669104E-01
8.200000000E+00 9.999829239E-01 1.508773690E-06 1.512002408E-01
8.300000000E+00 9.999833161E-01 1.442998397E-06 1.493785512E-01
8.400000000E+00 9.999836951E-01 1.380597932E-06 1.476002351E-01
8.500000000E+00 9.999840694E-01 1.335890268E-06 1.458637617E-01
8.600000000E+00 9.999844378E-01 1.305003676E-06 1.441676715E-01
8.700000000E+00 9.999847935E-01 1.275176006E-06 1.425105718E-01
8.800000000E+00 9.999850995E-01 1.164141725E-06 1.408911335E-01
8.900000000E+00 9.999854226E-01 1.116593448E-06 1.393080870E-01
9.000000000E+00 9.999857354E-01 1.071327219E-06 1.377602194E-01
9.100000000E+00 9.999860444E-01 1.041922570E-06 1.362463708E-01
9.200000000E+00 9.999863462E-01 1.019395179E-06 1.347654320E-01
9.300000000E+00 9.999866382E-01 9.975905653E-07 1.333163414E-01
9.400000000E+00 9.999868993E-01 9.116606669E-07 1.318980824E-01
9.500000000E+00 9.999871682E-01 8.762583181E-07 1.305096815E-01
9.600000000E+00 9.999874289E-01 8.424583012E-07 1.291502057E-01
9.700000000E+00 9.999876839E-01 8.167240617E-07 1.278187603E-01
9.800000000E+00 9.999879340E-01 8.001412637E-07 1.265144872E-01
9.900000000E+00 9.999881765E-01 7.840584325E-07 1.252365631E-01
1.000000000E+01 9.999884011E-01 7.237023224E-07 1.239841975E-01
1.010000000E+01 9.999886267E-01 6.972465086E-07 1.227566311E-01
1.020000000E+01 9.999888459E-01 6.719184436E-07 1.215531348E-01
1.030000000E+01 9.999890587E-01 6.476610172E-07 1.203730072E-01
1.040000000E+01 9.999892675E-01 6.327077431E-07 1.192155745E-01
1.050000000E+01 9.999894710E-01 6.207135555E-07 1.180801881E-01
1.060000000E+01 9.999896687E-01 6.090572222E-07 1.169662240E-01
1.070000000E+01 9.999898453E-01 5.615171371E-07 1.158730817E-01
1.080000000E+01 9.999900286E-01 5.421454539E-07 1.148001828E-01
1.090000000E+01 9.999902069E-01 5.235493799E-07 1.137469701E-01
1.100000000E+01 9.999903806E-01 5.056920555E-07 1.127129068E-01
1.110000000E+01 9.999905520E-01 4.941307826E-07 1.116974752E-01
1.120000000E+01 9.999907200E-01 4.853464105E-07 1.107001763E-01
1.130000000E+01 9.999908835E-01 4.767942183E-07 1.097205287E-01
1.140000000E+01 9.999910428E-01 4.684660952E-07 1.087580679E-01
1.150000000E+01 9.999911954E-01 4.267363751E-07 1.078123456E-01
1.160000000E+01 9.999913460E-01 4.127168042E-07 1.068829288E-01
1.170000000E+01 9.999914928E-01 3.992246149E-07 1.059693995E-01
1.180000000E+01 9.999916360E-01 3.864357135E-07 1.050713538E-01
1.190000000E+01 9.999917759E-01 3.799682843E-07 1.041884012E-01
1.200000000E+01 9.999919124E-01 3.736618663E-07 1.033201645E-01
1.210000000E+01 9.999920456E-01 3.675111587E-07 1.024662789E-01
1.220000000E+01 9.999921757E-01 3.398403281E-07 1.016263914E-01
1.230000000E+01 9.999923024E-01 3.292658121E-07 1.008001605E-01
1.240000000E+01 9.999924261E-01 3.190673085E-07 9.998725601E-02
1.250000000E+01 9.999925469E-01 3.092290006E-07 9.918735797E-02
1.260000000E+01 9.999926648E-01 2.997358476E-07 9.840015671E-02
1.270000000E+01 9.999927798E-01 2.946878523E-07 9.762535233E-02
1.280000000E+01 9.999928922E-01 2.901013409E-07 9.686265426E-02
1.290000000E+01 9.999930020E-01 2.856210786E-07 9.611178098E-02
1.300000000E+01 9.999931092E-01 2.812438088E-07 9.537245958E-02
1.310000000E+01 9.999932156E-01 2.581360859E-07 9.464442554E-02
1.320000000E+01 9.999933183E-01 2.506414974E-07 9.392742232E-02
1.330000000E+01 9.999934186E-01 2.433955750E-07 9.322120110E-02
1.340000000E+01 9.999935168E-01 2.363885548E-07 9.252552049E-02
1.350000000E+01 9.999936127E-01 2.303780812E-07 9.184014627E-02
1.360000000E+01 9.999937063E-01 2.270026238E-07 9.116485107E-02
1.370000000E+01 9.999937978E-01 2.237008114E-07 9.049941420E-02
1.380000000E+01 9.999938874E-01 2.204705172E-07 8.984362135E-02
1.390000000E+01 9.999939750E-01 2.173096905E-07 8.919726436E-02
1.400000000E+01 9.999940628E-01 1.997535808E-07 8.856014104E-02
1.410000000E+01 9.999941471E-01 1.943268018E-07 8.793205493E-02
1.420000000E+01 9.999942296E-01 1.890686922E-07 8.731281511E-02
1.430000000E+01 9.999943104E-01 1.839730442E-07 8.670223598E-02
1.440000000E+01 9.999943895E-01 1.790339163E-07 8.610013712E-02
1.450000000E+01 9.999944666E-01 1.764156807E-07 8.550634307E-02
1.460000000E+01 9.999945422E-01 1.740073038E-07 8.492068319E-02
1.470000000E+01 9.999946162E-01 1.716479100E-07 8.434299147E-02
1.480000000E+01 9.999946887E-01 1.693361800E-07 8.377310639E-02
1.490000000E+01 9.999947618E-01 1.570954893E-07 8.321087078E-02
1.500000000E+01 9.999948318E-01 1.530914267E-07 8.265613164E-02
1.510000000E+01 9.999949004E-01 1.492043493E-07 8.210874004E-02
1.520000000E+01 9.999949676E-01 1.454302064E-07 8.156855096E-02
1.530000000E+01 9.999950335E-01 1.417651109E-07 8.103542318E-02
1.540000000E+01 9.999950982E-01 1.382053321E-07 8.050921913E-02
1.550000000E+01 9.999951612E-01 1.363979627E-07 7.998980481E-02
1.560000000E+01 9.999952231E-01 1.346548757E-07 7.947704965E-02
1.570000000E+01 9.999952837E-01 1.329449898E-07 7.897082641E-02
1.580000000E+01 9.999953432E-01 1.312674673E-07 7.847101105E-02
1.590000000E+01 9.999954016E-01 1.296214965E-07 7.797748268E-02
1.600000000E+01 9.999954611E-01 1.193600665E-07 7.749012341E-02
1.610000000E+01 9.999955177E-01 1.165164538E-07 7.700881830E-02
1.620000000E+01 9.999955732E-01 1.137503912E-07 7.653345522E-02
1.630000000E+01 9.999956276E-01 1.110593724E-07 7.606392482E-02
1.640000000E+01 9.999956811E-01 1.084409855E-07 7.560012040E-02
1.650000000E+01 9.999957335E-01 1.063468716E-07 7.514193785E-02
1.660000000E+01 9.999957848E-01 1.050694432E-07 7.468927558E-02
1.670000000E+01 9.999958351E-01 1.038148940E-07 7.424203441E-02
1.680000000E+01 9.999958845E-01 1.025826806E-07 7.380011753E-02
1.690000000E+01 9.999959331E-01 1.013722761E-07 7.336343045E-02
1.700000000E+01 9.999959808E-01 1.001831688E-07 7.293188086E-02
1.710000000E+01 9.999960297E-01 9.236260439E-08 7.250537863E-02
1.720000000E+01 9.999960760E-01 9.030348107E-08 7.208383573E-02
1.730000000E+01 9.999961215E-01 8.829695110E-08 7.166716616E-02
1.740000000E+01 9.999961663E-01 8.634142174E-08 7.125528590E-02
1.750000000E+01 9.999962102E-01 8.443535656E-08 7.084811283E-02
1.760000000E+01 9.999962534E-01 8.258719946E-08 7.044556674E-02
1.770000000E+01 9.999962957E-01 8.165664689E-08 7.004756919E-02
1.780000000E+01 9.999963372E-01 8.074173370E-08 6.965404352E-02
1.790000000E+01 9.999963780E-01 7.984211137E-08 6.926491478E-02
1.800000000E+01 9.999964181E-01 7.895744106E-08 6.888010970E-02
1.810000000E+01 9.999964576E-01 7.808739325E-08 6.849955661E-02
1.820000000E+01 9.999964980E-01 7.263561583E-08 6.812318542E-02
1.830000000E+01 9.999965364E-01 7.111666614E-08 6.775092757E-02
1.840000000E+01 9.999965742E-01 6.963417610E-08 6.738271601E-02
1.850000000E+01 9.999966114E-01 6.818710729E-08 6.701848511E-02
1.860000000E+01 9.999966480E-01 6.677445585E-08 6.665817068E-02
1.870000000E+01 9.999966840E-01 6.539525115E-08 6.630170987E-02
1.880000000E+01 9.999967194E-01 6.404855456E-08 6.594904120E-02
1.890000000E+01 9.999967540E-01 6.328275922E-08 6.560010448E-02
1.900000000E+01 9.999967881E-01 6.261837790E-08 6.525484077E-02
1.910000000E+01 9.999968216E-01 6.196440454E-08 6.491319239E-02
1.920000000E+01 9.999968547E-01 6.132062289E-08 6.457510284E-02
1.930000000E+01 9.999968872E-01 6.068682225E-08 6.424051682E-02
1.940000000E+01 9.999969192E-01 6.006279738E-08 6.390938013E-02
1.950000000E+01 9.999969522E-01 5.567618957E-08 6.358163972E-02
1.960000000E+01 9.999969834E-01 5.458706806E-08 6.325724360E-02
1.970000000E+01 9.999970142E-01 5.352238564E-08 6.293614084E-02
1.980000000E+01 9.999970444E-01 5.248149153E-08 6.261828154E-02
1.990000000E+01 9.999970743E-01 5.146375523E-08 6.230361681E-02
2.000000000E+01 9.999971036E-01 5.046856574E-08 6.199209873E-02
2.010000000E+01 9.999971326E-01 4.949533094E-08 6.168368033E-02
2.020000000E+01 9.999971609E-01 4.895542281E-08 6.137831557E-02
2.030000000E+01 9.999971888E-01 4.847429135E-08 6.107595934E-02
2.040000000E+01 9.999972163E-01 4.800021800E-08 6.077656738E-02
2.050000000E+01 9.999972434E-01 4.753306537E-08 6.048009632E-02
2.060000000E+01 9.999972701E-01 4.707269941E-08 6.018650362E-02
2.070000000E+01 9.999972964E-01 4.661898930E-08 5.989574756E-02
2.080000000E+01 9.999973235E-01 4.341702246E-08 5.960778724E-02
2.090000000E+01 9.999973492E-01 4.262149642E-08 5.932258252E-02
2.100000000E+01 9.999973746E-01 4.184271268E-08 5.904009403E-02
2.110000000E+01 9.999973996E-01 4.108025288E-08 5.876028316E-02
2.120000000E+01 9.999974242E-01 4.033371087E-08 5.848311201E-02
2.130000000E+01 9.999974485E-01 3.960269233E-08 5.820854341E-02
2.140000000E+01 9.999974724E-01 3.888681435E-08 5.793654087E-02
2.150000000E+01 9.999974960E-01 3.818940602E-08 5.766706859E-02
2.160000000E+01 9.999975192E-01 3.783661894E-08 5.740009142E-02
2.170000000E+01 9.999975420E-01 3.748869786E-08 5.713557487E-02
2.180000000E+01 9.999975645E-01 3.714555368E-08 5.687348507E-02
2.190000000E+01 9.999975867E-01 3.680709938E-08 5.661378879E-02
2.200000000E+01 9.999976086E-01 3.647324986E-08 5.635645339E-02
2.210000000E+01 9.999976301E-01 3.614392198E-08 5.610144681E-02
2.220000000E+01 9.999976514E-01 3.581903444E-08 5.584873759E-02
2.230000000E+01 9.999976735E-01 3.320019789E-08 5.559829482E-02
2.240000000E+01 9.999976944E-01 3.263152656E-08 5.535008815E-02
2.250000000E+01 9.999977150E-01 3.207403515E-08 5.510408776E-02
2.260000000E+01 9.999977353E-01 3.152746268E-08 5.486026436E-02
2.270000000E+01 9.999977553E-01 3.099155528E-08 5.461858919E-02
2.280000000E+01 9.999977751E-01 3.046606600E-08 5.437903397E-02
2.290000000E+01 9.999977946E-01 2.995075456E-08 5.414157094E-02
2.300000000E+01 9.999978138E-01 2.949109373E-08 5.390617281E-02
2.310000000E+01 9.999978327E-01 2.923631226E-08 5.367281275E-02
2.320000000E+01 9.999978513E-01 2.898481827E-08 5.344146442E-02
2.330000000E+01 9.999978697E-01 2.873655544E-08 5.321210191E-02
2.340000000E+01 9.999978879E-01 2.849146867E-08 5.298469977E-02
2.350000000E+01 9.999979058E-01 2.824950400E-08 5.275923296E-02
2.360000000E+01 9.999979235E-01 2.801060863E-08 5.253567689E-02
2.370000000E+01 9.999979410E-01 2.777473087E-08 5.231400737E-02
2.380000000E+01 9.999979591E-01 2.579913223E-08 5.209420061E-02
2.390000000E+01 9.999979763E-01 2.538071861E-08 5.187623325E-02
2.400000000E+01 9.999979932E-01 2.497004560E-08 5.166008227E-02
2.410000000E+01 9.999980099E-01 2.456694339E-08 5.144572509E-02
2.420000000E+01 9.999980264E-01 2.417124656E-08 5.123313945E-02
2.430000000E+01 9.999980427E-01 2.378279387E-08 5.102230348E-02
2.440000000E+01 9.999980588E-01 2.340142823E-08 5.081319568E-02
2.450000000E+01 9.999980747E-01 2.302699650E-08 5.060579488E-02
2.460000000E+01 9.999980904E-01 2.271201685E-08 5.040008027E-02
2.470000000E+01 9.999981058E-01 2.252848615E-08 5.019603136E-02
2.480000000E+01 9.999981211E-01 2.234717111E-08 4.999362801E-02
2.490000000E+01 9.999981361E-01 2.216803619E-08 4.979285038E-02
2.500000000E+01 9.999981510E-01 2.199104659E-08 4.959367898E-02
2.510000000E+01 9.999981657E-01 2.181616818E-08 4.939609460E-02
2.520000000E+01 9.999981803E-01 2.164336753E-08 4.920007836E-02
2.530000000E+01 9.999981946E-01 2.147261185E-08 4.900561164E-02
2.540000000E+01 9.999982095E-01 1.999421867E-08 4.881267616E-02
2.550000000E+01 9.999982236E-01 1.968671608E-08 4.862125391E-02
2.560000000E+01 9.999982375E-01 1.938456908E-08 4.843132713E-02
2.570000000E+01 9.999982513E-01 1.908766728E-08 4.824287839E-02
2.580000000E+01 9.999982649E-01 1.879590291E-08 4.805589049E-02
2.590000000E+01 9.999982783E-01 1.850917082E-08 4.787034651E-02
2.600000000E+01 9.999982916E-01 1.822736834E-08 4.768622979E-02
2.610000000E+01 9.999983047E-01 1.795039527E-08 4.750352393E-02
2.620000000E+01 9.999983177E-01 1.767815380E-08 4.732221277E-02
2.630000000E+01 9.999983305E-01 1.746076492E-08 4.714228040E-02
2.640000000E+01 9.999983432E-01 1.732873693E-08 4.696371116E-02
2.650000000E+01 9.999983556E-01 1.719820077E-08 4.678648961E-02
2.660000000E+01 9.999983680E-01 1.706913405E-08 4.661060055E-02
2.670000000E+01 9.999983802E-01 1.694151481E-08 4.643602901E-02
2.680000000E+01 9.999983922E-01 1.681532147E-08 4.626276025E-02
2.690000000E+01 9.999984042E-01 1.669053287E-08 4.609077972E-02
2.700000000E+01 9.999984160E-01 1.656712824E-08 4.592007313E-02
2.710000000E+01 9.999984276E-01 1.644508720E-08 4.575062637E-02
2.720000000E+01 9.999984398E-01 1.522818348E-08 4.558242554E-02
2.730000000E+01 9.999984513E-01 1.500519145E-08 4.541545694E-02
2.740000000E+01 9.999984626E-01 1.478585208E-08 4.524970710E-02
2.750000000E+01 9.999984738E-01 1.457009475E-08 4.508516271E-02
2.760000000E+01 9.999984849E-01 1.435785044E-08 4.492181067E-02
2.770000000E+01 9.999984959E-01 1.414905167E-08 4.475963807E-02
2.780000000E+01 9.999985068E-01 1.394363248E-08 4.459863218E-02
2.790000000E+01 9.999985175E-01 1.374152839E-08 4.443878045E-02
2.800000000E+01 9.999985282E-01 1.354267636E-08 4.428007052E-02
2.810000000E+01 9.999985387E-01 1.337068598E-08 4.412249020E-02
2.820000000E+01 9.999985490E-01 1.327602655E-08 4.396602747E-02
2.830000000E+01 9.999985592E-01 1.318236881E-08 4.381067048E-02
2.840000000E+01 9.999985694E-01 1.308969866E-08 4.365640756E-02
2.850000000E+01 9.999985794E-01 1.299800228E-08 4.350322718E-02
2.860000000E+01 9.999985893E-01 1.290726607E-08 4.335111799E-02
2.870000000E+01 9.999985991E-01 1.281747666E-08 4.320006880E-02
2.880000000E+01 9.999986088E-01 1.272862094E-08 4.305006856E-02
2.890000000E+01 9.999986184E-01 1.264068600E-08 4.290110639E-02
2.900000000E+01 9.999986279E-01 1.255365916E-08 4.275317154E-02
2.910000000E+01 9.999986379E-01 1.160238276E-08 4.260625342E-02
2.920000000E+01 9.999986473E-01 1.144236048E-08 4.246034160E-02
2.930000000E+01 9.999986565E-01 1.128479582E-08 4.231542575E-02
2.940000000E+01 9.999986657E-01 1.112964426E-08 4.217149573E-02
2.950000000E+01 9.999986748E-01 1.097686223E-08 4.202854151E-02
2.960000000E+01 9.999986838E-01 1.082640711E-08 4.188655320E-02
2.970000000E+01 9.999986927E-01 1.067823712E-08 4.174552103E-02
2.980000000E+01 9.999987015E-01 1.053231139E-08 4.160543539E-02
2.990000000E+01 9.999987102E-01 1.038858990E-08 4.146628678E-02
3.000000000E+01 9.999987188E-01 1.024703345E-08 4.132806582E-02
3.010000000E+01 9.999987273E-01 1.016965797E-08 4.119076328E-02
3.020000000E+01 9.999987358E-01 1.010242075E-08 4.105437002E-02
3.030000000E+01 9.999987441E-01 1.003584814E-08 4.091887705E-02
3.040000000E+01 9.999987523E-01 9.969931416E-09 4.078427548E-02
3.050000000E+01 9.999987605E-01 9.904661991E-09 4.065055654E-02
3.060000000E+01 9.999987686E-01 9.840031417E-09 4.051771159E-02
3.070000000E+01 9.999987766E-01 9.776031382E-09 4.038573207E-02
3.080000000E+01 9.999987845E-01 9.712653712E-09 4.025460956E-02
3.090000000E+01 9.999987924E-01 9.649890363E-09 4.012433575E-02
3.100000000E+01 9.999988002E-01 9.587733421E-09 3.999490241E-02
3.110000000E+01 9.999988083E-01 8.869978334E-09 3.986630143E-02
3.120000000E+01 9.999988160E-01 8.755504680E-09 3.973852483E-02
3.130000000E+01 9.999988236E-01 8.642676911E-09 3.961156468E-02
3.140000000E+01 9.999988311E-01 8.531467113E-09 3.948541320E-02
3.150000000E+01 9.999988385E-01 8.421847928E-09 3.936006269E-02
3.160000000E+01 9.999988459E-01 8.313792536E-09 3.923550552E-02
3.170000000E+01 9.999988532E-01 8.207274646E-09 3.911173421E-02
3.180000000E+01 9.999988605E-01 8.102268482E-09 3.898874134E-02
3.190000000E+01 9.999988676E-01 7.998748773E-09 3.886651958E-02
3.200000000E+01 9.999988747E-01 7.896690740E-09 3.874506171E-02
3.210000000E+01 9.999988818E-01 7.802742593E-09 3.862436058E-02
3.220000000E+01 9.999988887E-01 7.754353609E-09 3.850440915E-02
3.230000000E+01 9.999988956E-01 7.706413361E-09 3.838520045E-02
3.240000000E+01 9.999989024E-01 7.658916319E-09 3.826672761E-02
3.250000000E+01 9.999989091E-01 7.611857037E-09 3.814898383E-02
3.260000000E+01 9.999989158E-01 7.565230151E-09 3.803196241E-02
3.270000000E+01 9.999989224E-01 7.519030380E-09 3.791565672E-02
