# 08/03/2022 
# Density retrieved from www.chemicool.com/densities.html 
# Includes the real (n) and complex (k) part of the  refractive index. 
# Element, W  (Z = 74) 
# Nominal density, g cm-3 =  19.3 
#    E [keV]      n       k    Wavelength [nm] 
2.000000000E+00 9.995084239E-01 3.594980876E-04 6.199209873E-01
2.100000000E+00 9.995108122E-01 3.047929805E-04 5.904009403E-01
2.200000000E+00 9.995337047E-01 2.589198417E-04 5.635645339E-01
2.300000000E+00 9.995715097E-01 2.613469877E-04 5.390617281E-01
2.400000000E+00 9.995726228E-01 2.247008173E-04 5.166008227E-01
2.500000000E+00 9.995937366E-01 1.954873865E-04 4.959367898E-01
2.600000000E+00 9.996184157E-01 1.828602620E-04 4.768622979E-01
2.700000000E+00 9.996328969E-01 1.601662978E-04 4.592007313E-01
2.800000000E+00 9.996544778E-01 1.420600649E-04 4.428007052E-01
2.900000000E+00 9.996694690E-01 1.324421019E-04 4.275317154E-01
3.000000000E+00 9.996845129E-01 1.185111353E-04 4.132806582E-01
3.100000000E+00 9.997001758E-01 1.058797797E-04 3.999490241E-01
3.200000000E+00 9.997153727E-01 9.492834513E-05 3.874506171E-01
3.300000000E+00 9.997298607E-01 8.540744230E-05 3.757096893E-01
3.400000000E+00 9.997435262E-01 7.704150105E-05 3.646594043E-01
3.500000000E+00 9.997563847E-01 6.968170307E-05 3.542405642E-01
3.600000000E+00 9.997685652E-01 6.346278021E-05 3.444005485E-01
3.700000000E+00 9.997791188E-01 5.743310101E-05 3.350924256E-01
3.800000000E+00 9.997894044E-01 5.238858291E-05 3.262742038E-01
3.900000000E+00 9.997994043E-01 4.762770888E-05 3.179081986E-01
4.000000000E+00 9.998088911E-01 4.374765103E-05 3.099604936E-01
4.100000000E+00 9.998168703E-01 4.057661454E-05 3.024004816E-01
4.200000000E+00 9.998251717E-01 3.666884070E-05 2.952004701E-01
4.300000000E+00 9.998330138E-01 3.374822122E-05 2.883353429E-01
4.400000000E+00 9.998404546E-01 3.183043123E-05 2.817822670E-01
4.500000000E+00 9.998471694E-01 2.877046761E-05 2.755204388E-01
4.600000000E+00 9.998535794E-01 2.662466169E-05 2.695308640E-01
4.700000000E+00 9.998596936E-01 2.522320252E-05 2.637961648E-01
4.800000000E+00 9.998654429E-01 2.290396409E-05 2.583004114E-01
4.900000000E+00 9.998708594E-01 2.128282187E-05 2.530289744E-01
5.000000000E+00 9.998759637E-01 2.009406429E-05 2.479683949E-01
5.100000000E+00 9.998807802E-01 1.931378729E-05 2.431062695E-01
5.200000000E+00 9.998853244E-01 1.723894202E-05 2.384311490E-01
5.300000000E+00 9.998896120E-01 1.612414072E-05 2.339324480E-01
5.400000000E+00 9.998936626E-01 1.553247987E-05 2.296003657E-01
5.500000000E+00 9.998975808E-01 1.412667321E-05 2.254258136E-01
5.600000000E+00 9.999012448E-01 1.324788857E-05 2.214003526E-01
5.700000000E+00 9.999047018E-01 1.256912819E-05 2.175161359E-01
5.800000000E+00 9.999079596E-01 1.213944634E-05 2.137658577E-01
5.900000000E+00 9.999111993E-01 1.100932757E-05 2.101427076E-01
6.000000000E+00 9.999141905E-01 1.036931181E-05 2.066403291E-01
6.100000000E+00 9.999170077E-01 9.899390253E-06 2.032527827E-01
6.200000000E+00 9.999196633E-01 9.582630367E-06 1.999745120E-01
6.300000000E+00 9.999223569E-01 8.730392633E-06 1.968003134E-01
6.400000000E+00 9.999248244E-01 8.257206309E-06 1.937253085E-01
6.500000000E+00 9.999271581E-01 7.875795739E-06 1.907449192E-01
6.600000000E+00 9.999293488E-01 7.638943296E-06 1.878548446E-01
6.700000000E+00 9.999315963E-01 7.033665658E-06 1.850510410E-01
6.800000000E+00 9.999336546E-01 6.677742333E-06 1.823297021E-01
6.900000000E+00 9.999356216E-01 6.343586843E-06 1.796872427E-01
7.000000000E+00 9.999374560E-01 6.143416803E-06 1.771202821E-01
7.100000000E+00 9.999392054E-01 5.971581498E-06 1.746256302E-01
7.200000000E+00 9.999410660E-01 5.472691856E-06 1.722002742E-01
7.300000000E+00 9.999427290E-01 5.215775845E-06 1.698413664E-01
7.400000000E+00 9.999443188E-01 4.980347648E-06 1.675462128E-01
7.500000000E+00 9.999457937E-01 4.848423772E-06 1.653122633E-01
7.600000000E+00 9.999472108E-01 4.721673082E-06 1.631371019E-01
7.700000000E+00 9.999487717E-01 4.335055307E-06 1.610184383E-01
7.800000000E+00 9.999501366E-01 4.144892184E-06 1.589540993E-01
7.900000000E+00 9.999514478E-01 3.964874882E-06 1.569420221E-01
8.000000000E+00 9.999526552E-01 3.864829844E-06 1.549802468E-01
8.100000000E+00 9.999538170E-01 3.769991007E-06 1.530669104E-01
8.200000000E+00 9.999551454E-01 3.479901368E-06 1.512002408E-01
8.300000000E+00 9.999562848E-01 3.334568581E-06 1.493785512E-01
8.400000000E+00 9.999573815E-01 3.196569742E-06 1.476002351E-01
8.500000000E+00 9.999584057E-01 3.095836221E-06 1.458637617E-01
8.600000000E+00 9.999593674E-01 3.024258612E-06 1.441676715E-01
8.700000000E+00 9.999602961E-01 2.955134985E-06 1.425105718E-01
8.800000000E+00 9.999614811E-01 2.712028426E-06 1.408911335E-01
8.900000000E+00 9.999624172E-01 2.605242392E-06 1.393080870E-01
9.000000000E+00 9.999633198E-01 2.503510030E-06 1.377602194E-01
9.100000000E+00 9.999641425E-01 2.435947353E-06 1.362463708E-01
9.200000000E+00 9.999649177E-01 2.383279776E-06 1.347654320E-01
9.300000000E+00 9.999656681E-01 2.332302003E-06 1.333163414E-01
9.400000000E+00 9.999668648E-01 2.132800455E-06 1.318980824E-01
9.500000000E+00 9.999676770E-01 2.050354337E-06 1.305096815E-01
9.600000000E+00 9.999684603E-01 1.971633535E-06 1.291502057E-01
9.700000000E+00 9.999691686E-01 1.911609298E-06 1.278187603E-01
9.800000000E+00 9.999697946E-01 1.872795906E-06 1.265144872E-01
9.900000000E+00 9.999710590E-01 1.756982000E-06 1.252365631E-01
1.000000000E+01 9.999718867E-01 1.692069794E-06 1.239841975E-01
1.010000000E+01 9.999732428E-01 1.630182461E-06 1.227566311E-01
1.020000000E+01 9.999755957E-01 1.572533722E-06 1.215531348E-01
1.030000000E+01 9.999742008E-01 4.203448845E-06 1.203730072E-01
1.040000000E+01 9.999740091E-01 4.032828648E-06 1.192155745E-01
1.050000000E+01 9.999744444E-01 3.947286524E-06 1.180801881E-01
1.060000000E+01 9.999749243E-01 3.873160727E-06 1.169662240E-01
1.070000000E+01 9.999753908E-01 3.801103496E-06 1.158730817E-01
1.080000000E+01 9.999753121E-01 3.458501056E-06 1.148001828E-01
1.090000000E+01 9.999756350E-01 3.329796364E-06 1.137469701E-01
1.100000000E+01 9.999759525E-01 3.206348932E-06 1.127129068E-01
1.110000000E+01 9.999763472E-01 3.130061556E-06 1.116974752E-01
1.120000000E+01 9.999768249E-01 2.989138004E-06 1.107001763E-01
1.130000000E+01 9.999772656E-01 2.888184708E-06 1.097205287E-01
1.140000000E+01 9.999776666E-01 2.831900494E-06 1.087580679E-01
1.150000000E+01 9.999784440E-01 2.707065556E-06 1.078123456E-01
1.160000000E+01 9.999787843E-01 3.656202179E-06 1.068829288E-01
1.170000000E+01 9.999788652E-01 3.540822612E-06 1.059693995E-01
1.180000000E+01 9.999789994E-01 3.434087695E-06 1.050713538E-01
1.190000000E+01 9.999792860E-01 3.344913473E-06 1.041884012E-01
1.200000000E+01 9.999796333E-01 3.221850360E-06 1.033201645E-01
1.210000000E+01 9.999801766E-01 3.130466190E-06 1.024662789E-01
1.220000000E+01 9.999801931E-01 3.535580183E-06 1.016263914E-01
1.230000000E+01 9.999802374E-01 3.416106977E-06 1.008001605E-01
1.240000000E+01 9.999804868E-01 3.345915828E-06 9.998725601E-02
1.250000000E+01 9.999806395E-01 3.229197641E-06 9.918735797E-02
1.260000000E+01 9.999808522E-01 3.140724976E-06 9.840015671E-02
1.270000000E+01 9.999811456E-01 3.088644821E-06 9.762535233E-02
1.280000000E+01 9.999814390E-01 3.040573261E-06 9.686265426E-02
1.290000000E+01 9.999817257E-01 2.993615306E-06 9.611178098E-02
1.300000000E+01 9.999820057E-01 2.947736823E-06 9.537245958E-02
1.310000000E+01 9.999820257E-01 2.738432457E-06 9.464442554E-02
1.320000000E+01 9.999822485E-01 2.665669462E-06 9.392742232E-02
1.330000000E+01 9.999824674E-01 2.595242513E-06 9.322120110E-02
1.340000000E+01 9.999826825E-01 2.527061449E-06 9.252552049E-02
1.350000000E+01 9.999829041E-01 2.467739180E-06 9.184014627E-02
1.360000000E+01 9.999831546E-01 2.431582318E-06 9.116485107E-02
1.370000000E+01 9.999833996E-01 2.396214319E-06 9.049941420E-02
1.380000000E+01 9.999836393E-01 2.361612400E-06 8.984362135E-02
1.390000000E+01 9.999838739E-01 2.327754596E-06 8.919726436E-02
1.400000000E+01 9.999839742E-01 2.161403291E-06 8.856014104E-02
1.410000000E+01 9.999841775E-01 2.106873528E-06 8.793205493E-02
1.420000000E+01 9.999843769E-01 2.053993034E-06 8.731281511E-02
1.430000000E+01 9.999845727E-01 2.002701962E-06 8.670223598E-02
1.440000000E+01 9.999847648E-01 1.952943011E-06 8.610013712E-02
1.450000000E+01 9.999849728E-01 1.924649703E-06 8.550634307E-02
1.460000000E+01 9.999851780E-01 1.898374930E-06 8.492068319E-02
1.470000000E+01 9.999853789E-01 1.872634551E-06 8.434299147E-02
1.480000000E+01 9.999855759E-01 1.847414171E-06 8.377310639E-02
1.490000000E+01 9.999857021E-01 1.727985847E-06 8.321087078E-02
1.500000000E+01 9.999858792E-01 1.686826622E-06 8.265613164E-02
1.510000000E+01 9.999860532E-01 1.646840355E-06 8.210874004E-02
1.520000000E+01 9.999862239E-01 1.607986952E-06 8.156855096E-02
1.530000000E+01 9.999863916E-01 1.570227930E-06 8.103542318E-02
1.540000000E+01 9.999865562E-01 1.533526337E-06 8.050921913E-02
1.550000000E+01 9.999867289E-01 1.513519526E-06 7.998980481E-02
1.560000000E+01 9.999868985E-01 1.494177622E-06 7.947704965E-02
1.570000000E+01 9.999870648E-01 1.475204130E-06 7.897082641E-02
1.580000000E+01 9.999872281E-01 1.456589754E-06 7.847101105E-02
1.590000000E+01 9.999873882E-01 1.438325486E-06 7.797748268E-02
1.600000000E+01 9.999875014E-01 1.335332640E-06 7.749012341E-02
1.610000000E+01 9.999876492E-01 1.305361217E-06 7.700881830E-02
1.620000000E+01 9.999877944E-01 1.276189604E-06 7.653345522E-02
1.630000000E+01 9.999879371E-01 1.247792241E-06 7.606392482E-02
1.640000000E+01 9.999880773E-01 1.220144526E-06 7.560012040E-02
1.650000000E+01 9.999882174E-01 1.197689295E-06 7.514193785E-02
1.660000000E+01 9.999883590E-01 1.183302767E-06 7.468927558E-02
1.670000000E+01 9.999884980E-01 1.169173906E-06 7.424203441E-02
1.680000000E+01 9.999886345E-01 1.155296593E-06 7.380011753E-02
1.690000000E+01 9.999887686E-01 1.141664895E-06 7.336343045E-02
1.700000000E+01 9.999889003E-01 1.128273047E-06 7.293188086E-02
1.710000000E+01 9.999890045E-01 1.048419312E-06 7.250537863E-02
1.720000000E+01 9.999891282E-01 1.026355427E-06 7.208383573E-02
1.730000000E+01 9.999892498E-01 1.004843383E-06 7.166716616E-02
1.740000000E+01 9.999893695E-01 9.838666468E-07 7.125528590E-02
1.750000000E+01 9.999894871E-01 9.634092692E-07 7.084811283E-02
1.760000000E+01 9.999896028E-01 9.435553781E-07 7.044556674E-02
1.770000000E+01 9.999897200E-01 9.329238530E-07 7.004756919E-02
1.780000000E+01 9.999898352E-01 9.224710072E-07 6.965404352E-02
1.790000000E+01 9.999899484E-01 9.121928589E-07 6.926491478E-02
1.800000000E+01 9.999900598E-01 9.020855367E-07 6.888010970E-02
1.810000000E+01 9.999901693E-01 8.921452761E-07 6.849955661E-02
1.820000000E+01 9.999902642E-01 8.357244634E-07 6.812318542E-02
1.830000000E+01 9.999903683E-01 8.192347701E-07 6.775092757E-02
1.840000000E+01 9.999904707E-01 8.031325641E-07 6.738271601E-02
1.850000000E+01 9.999905715E-01 7.874069299E-07 6.701848511E-02
1.860000000E+01 9.999906707E-01 7.720473130E-07 6.665817068E-02
1.870000000E+01 9.999907684E-01 7.570435060E-07 6.630170987E-02
1.880000000E+01 9.999908645E-01 7.423856358E-07 6.594904120E-02
1.890000000E+01 9.999909607E-01 7.336388661E-07 6.560010448E-02
1.900000000E+01 9.999910556E-01 7.259366741E-07 6.525484077E-02
1.910000000E+01 9.999911490E-01 7.183551420E-07 6.491319239E-02
1.920000000E+01 9.999912409E-01 7.108917626E-07 6.457510284E-02
1.930000000E+01 9.999913315E-01 7.035440934E-07 6.424051682E-02
1.940000000E+01 9.999914206E-01 6.963097549E-07 6.390938013E-02
1.950000000E+01 9.999915010E-01 6.505398811E-07 6.358163972E-02
1.960000000E+01 9.999915864E-01 6.385660813E-07 6.325724360E-02
1.970000000E+01 9.999916706E-01 6.268550526E-07 6.293614084E-02
1.980000000E+01 9.999917536E-01 6.153998782E-07 6.261828154E-02
1.990000000E+01 9.999918353E-01 6.041938548E-07 6.230361681E-02
2.000000000E+01 9.999919158E-01 5.932304855E-07 6.199209873E-02
2.010000000E+01 9.999919951E-01 5.825034725E-07 6.168368033E-02
2.020000000E+01 9.999920740E-01 5.762271812E-07 6.137831557E-02
2.030000000E+01 9.999921519E-01 5.705640491E-07 6.107595934E-02
2.040000000E+01 9.999922287E-01 5.649839942E-07 6.077656738E-02
2.050000000E+01 9.999923043E-01 5.594853992E-07 6.048009632E-02
2.060000000E+01 9.999923789E-01 5.540666863E-07 6.018650362E-02
2.070000000E+01 9.999924523E-01 5.487263157E-07 5.989574756E-02
2.080000000E+01 9.999925181E-01 5.146240108E-07 5.960778724E-02
2.090000000E+01 9.999925887E-01 5.057221369E-07 5.932258252E-02
2.100000000E+01 9.999926582E-01 4.970037096E-07 5.904009403E-02
2.110000000E+01 9.999927267E-01 4.884641944E-07 5.876028316E-02
2.120000000E+01 9.999927943E-01 4.800991886E-07 5.848311201E-02
2.130000000E+01 9.999928610E-01 4.719044167E-07 5.820854341E-02
2.140000000E+01 9.999929267E-01 4.638757262E-07 5.793654087E-02
2.150000000E+01 9.999929916E-01 4.560478272E-07 5.766706859E-02
2.160000000E+01 9.999930563E-01 4.518349368E-07 5.740009142E-02
2.170000000E+01 9.999931201E-01 4.476801548E-07 5.713557487E-02
2.180000000E+01 9.999931831E-01 4.435824175E-07 5.687348507E-02
2.190000000E+01 9.999932452E-01 4.395406854E-07 5.661378879E-02
2.200000000E+01 9.999933065E-01 4.355539424E-07 5.635645339E-02
2.210000000E+01 9.999933669E-01 4.316211955E-07 5.610144681E-02
2.220000000E+01 9.999934266E-01 4.277414741E-07 5.584873759E-02
2.230000000E+01 9.999934841E-01 3.995774065E-07 5.559829482E-02
2.240000000E+01 9.999935420E-01 3.931279935E-07 5.535008815E-02
2.250000000E+01 9.999935992E-01 3.868026547E-07 5.510408776E-02
2.260000000E+01 9.999936556E-01 3.805985261E-07 5.486026436E-02
2.270000000E+01 9.999937112E-01 3.745128214E-07 5.461858919E-02
2.280000000E+01 9.999937661E-01 3.685428293E-07 5.437903397E-02
2.290000000E+01 9.999938203E-01 3.626859117E-07 5.414157094E-02
2.300000000E+01 9.999938738E-01 3.574234799E-07 5.390617281E-02
2.310000000E+01 9.999939267E-01 3.543356026E-07 5.367281275E-02
2.320000000E+01 9.999939790E-01 3.512875685E-07 5.344146442E-02
2.330000000E+01 9.999940305E-01 3.482786953E-07 5.321210191E-02
2.340000000E+01 9.999940815E-01 3.453083149E-07 5.298469977E-02
2.350000000E+01 9.999941317E-01 3.423757734E-07 5.275923296E-02
2.360000000E+01 9.999941813E-01 3.394804311E-07 5.253567689E-02
2.370000000E+01 9.999942303E-01 3.366216612E-07 5.231400737E-02
2.380000000E+01 9.999942762E-01 3.153953551E-07 5.209420061E-02
2.390000000E+01 9.999943237E-01 3.106181077E-07 5.187623325E-02
2.400000000E+01 9.999943706E-01 3.059270777E-07 5.166008227E-02
2.410000000E+01 9.999944170E-01 3.013203980E-07 5.144572509E-02
2.420000000E+01 9.999944627E-01 2.967962489E-07 5.123313945E-02
2.430000000E+01 9.999945079E-01 2.923528567E-07 5.102230348E-02
2.440000000E+01 9.999945526E-01 2.879884928E-07 5.081319568E-02
2.450000000E+01 9.999945967E-01 2.837014717E-07 5.060579488E-02
2.460000000E+01 9.999946404E-01 2.800463400E-07 5.040008027E-02
2.470000000E+01 9.999946837E-01 2.777833486E-07 5.019603136E-02
2.480000000E+01 9.999947265E-01 2.755476768E-07 4.999362801E-02
2.490000000E+01 9.999947687E-01 2.733388867E-07 4.979285038E-02
2.500000000E+01 9.999948105E-01 2.711565490E-07 4.959367898E-02
2.510000000E+01 9.999948518E-01 2.690002430E-07 4.939609460E-02
2.520000000E+01 9.999948925E-01 2.668695564E-07 4.920007836E-02
2.530000000E+01 9.999949328E-01 2.647640849E-07 4.900561164E-02
2.540000000E+01 9.999949733E-01 2.488291750E-07 4.881267616E-02
2.550000000E+01 9.999950127E-01 2.452841102E-07 4.862125391E-02
2.560000000E+01 9.999950517E-01 2.417991168E-07 4.843132713E-02
2.570000000E+01 9.999950902E-01 2.383729737E-07 4.824287839E-02
2.580000000E+01 9.999951283E-01 2.350044888E-07 4.805589049E-02
2.590000000E+01 9.999951659E-01 2.316924987E-07 4.787034651E-02
2.600000000E+01 9.999952031E-01 2.284358674E-07 4.768622979E-02
2.610000000E+01 9.999952398E-01 2.252334857E-07 4.750352393E-02
2.620000000E+01 9.999952762E-01 2.220842707E-07 4.732221277E-02
2.630000000E+01 9.999953121E-01 2.195183849E-07 4.714228040E-02
2.640000000E+01 9.999953475E-01 2.178585165E-07 4.696371116E-02
2.650000000E+01 9.999953826E-01 2.162174036E-07 4.678648961E-02
2.660000000E+01 9.999954172E-01 2.145947646E-07 4.661060055E-02
2.670000000E+01 9.999954515E-01 2.129903234E-07 4.643602901E-02
2.680000000E+01 9.999954854E-01 2.114038088E-07 4.626276025E-02
2.690000000E+01 9.999955189E-01 2.098349548E-07 4.609077972E-02
2.700000000E+01 9.999955520E-01 2.082835002E-07 4.592007313E-02
2.710000000E+01 9.999955848E-01 2.067491887E-07 4.575062637E-02
2.720000000E+01 9.999956182E-01 1.931130477E-07 4.558242554E-02
2.730000000E+01 9.999956503E-01 1.904667546E-07 4.541545694E-02
2.740000000E+01 9.999956821E-01 1.878628213E-07 4.524970710E-02
2.750000000E+01 9.999957135E-01 1.853004383E-07 4.508516271E-02
2.760000000E+01 9.999957446E-01 1.827788142E-07 4.492181067E-02
2.770000000E+01 9.999957754E-01 1.802971756E-07 4.475963807E-02
2.780000000E+01 9.999958058E-01 1.778547659E-07 4.459863218E-02
2.790000000E+01 9.999958359E-01 1.754508456E-07 4.443878045E-02
2.800000000E+01 9.999958657E-01 1.730846914E-07 4.428007052E-02
2.810000000E+01 9.999958952E-01 1.710172852E-07 4.412249020E-02
2.820000000E+01 9.999959242E-01 1.698065472E-07 4.396602747E-02
2.830000000E+01 9.999959530E-01 1.686086212E-07 4.381067048E-02
2.840000000E+01 9.999959814E-01 1.674233270E-07 4.365640756E-02
2.850000000E+01 9.999960096E-01 1.662504877E-07 4.350322718E-02
2.860000000E+01 9.999960374E-01 1.650899293E-07 4.335111799E-02
2.870000000E+01 9.999960650E-01 1.639414811E-07 4.320006880E-02
2.880000000E+01 9.999960923E-01 1.628049752E-07 4.305006856E-02
2.890000000E+01 9.999961193E-01 1.616802464E-07 4.290110639E-02
2.900000000E+01 9.999961460E-01 1.605671327E-07 4.275317154E-02
2.910000000E+01 9.999961744E-01 1.497008001E-07 4.260625342E-02
2.920000000E+01 9.999962007E-01 1.477664806E-07 4.246034160E-02
2.930000000E+01 9.999962268E-01 1.458612098E-07 4.231542575E-02
2.940000000E+01 9.999962526E-01 1.439844676E-07 4.217149573E-02
2.950000000E+01 9.999962781E-01 1.421357447E-07 4.202854151E-02
2.960000000E+01 9.999963034E-01 1.403145426E-07 4.188655320E-02
2.970000000E+01 9.999963284E-01 1.385203732E-07 4.174552103E-02
2.980000000E+01 9.999963532E-01 1.367527585E-07 4.160543539E-02
2.990000000E+01 9.999963777E-01 1.350112303E-07 4.146628678E-02
3.000000000E+01 9.999964020E-01 1.332953303E-07 4.132806582E-02
3.010000000E+01 9.999964259E-01 1.323050004E-07 4.119076328E-02
3.020000000E+01 9.999964495E-01 1.314302590E-07 4.105437002E-02
3.030000000E+01 9.999964729E-01 1.305641641E-07 4.091887705E-02
3.040000000E+01 9.999964961E-01 1.297066021E-07 4.078427548E-02
3.050000000E+01 9.999965190E-01 1.288574614E-07 4.065055654E-02
3.060000000E+01 9.999965417E-01 1.280166319E-07 4.051771159E-02
3.070000000E+01 9.999965642E-01 1.271840056E-07 4.038573207E-02
3.080000000E+01 9.999965865E-01 1.263594761E-07 4.025460956E-02
3.090000000E+01 9.999966086E-01 1.255429388E-07 4.012433575E-02
3.100000000E+01 9.999966304E-01 1.247342908E-07 3.999490241E-02
3.110000000E+01 9.999966541E-01 1.164581238E-07 3.986630143E-02
3.120000000E+01 9.999966757E-01 1.150554153E-07 3.973852483E-02
3.130000000E+01 9.999966971E-01 1.136724004E-07 3.961156468E-02
3.140000000E+01 9.999967183E-01 1.123087492E-07 3.948541320E-02
3.150000000E+01 9.999967393E-01 1.109641381E-07 3.936006269E-02
3.160000000E+01 9.999967600E-01 1.096382500E-07 3.923550552E-02
3.170000000E+01 9.999967806E-01 1.083307739E-07 3.911173421E-02
3.180000000E+01 9.999968010E-01 1.070414050E-07 3.898874134E-02
3.190000000E+01 9.999968212E-01 1.057698442E-07 3.886651958E-02
3.200000000E+01 9.999968412E-01 1.045157984E-07 3.874506171E-02
3.210000000E+01 9.999968610E-01 1.033549924E-07 3.862436058E-02
3.220000000E+01 9.999968804E-01 1.027140328E-07 3.850440915E-02
3.230000000E+01 9.999968997E-01 1.020790171E-07 3.838520045E-02
3.240000000E+01 9.999969188E-01 1.014498721E-07 3.826672761E-02
3.250000000E+01 9.999969378E-01 1.008265257E-07 3.814898383E-02
3.260000000E+01 9.999969565E-01 1.002089067E-07 3.803196241E-02
3.270000000E+01 9.999969751E-01 9.959694539E-08 3.791565672E-02
