# 08/03/2022 
# Density retrieved from www.chemicool.com/densities.html 
# Includes the real (n) and complex (k) part of the  refractive index. 
# Element, Xe  (Z = 54) 
# Nominal density, g cm-3 =  0.00588 
#    E [keV]      n       k    Wavelength [nm] 
2.000000000E+00 9.999997704E-01 5.863265877E-08 6.199209873E-01
2.100000000E+00 9.999997911E-01 4.852663584E-08 5.904009403E-01
2.200000000E+00 9.999998094E-01 4.098871761E-08 5.635645339E-01
2.300000000E+00 9.999998255E-01 3.531120133E-08 5.390617281E-01
2.400000000E+00 9.999998397E-01 3.098995071E-08 5.166008227E-01
2.500000000E+00 9.999998523E-01 2.669869161E-08 4.959367898E-01
2.600000000E+00 9.999998635E-01 2.413443119E-08 4.768622979E-01
2.700000000E+00 9.999998735E-01 2.063949017E-08 4.592007313E-01
2.800000000E+00 9.999998824E-01 1.902743558E-08 4.428007052E-01
2.900000000E+00 9.999998906E-01 1.617160267E-08 4.275317154E-01
3.000000000E+00 9.999998977E-01 1.507423927E-08 4.132806582E-01
3.100000000E+00 9.999999045E-01 1.276016979E-08 3.999490241E-01
3.200000000E+00 9.999999104E-01 1.194433270E-08 3.874506171E-01
3.300000000E+00 9.999999162E-01 1.015415229E-08 3.757096893E-01
3.400000000E+00 9.999999211E-01 9.470576118E-09 3.646594043E-01
3.500000000E+00 9.999999261E-01 8.201307302E-09 3.542405642E-01
3.600000000E+00 9.999999302E-01 7.577200808E-09 3.444005485E-01
3.700000000E+00 9.999999344E-01 6.707452000E-09 3.350924256E-01
3.800000000E+00 9.999999381E-01 6.106263486E-09 3.262742038E-01
3.900000000E+00 9.999999412E-01 5.797136406E-09 3.179081986E-01
4.000000000E+00 9.999999449E-01 5.045338099E-09 3.099604936E-01
4.100000000E+00 9.999999477E-01 4.693388471E-09 3.024004816E-01
4.200000000E+00 9.999999509E-01 4.218510103E-09 2.952004701E-01
4.300000000E+00 9.999999535E-01 3.867605874E-09 2.883353429E-01
4.400000000E+00 9.999999558E-01 3.642803735E-09 2.817822670E-01
4.500000000E+00 9.999999592E-01 3.275026649E-09 2.755204388E-01
4.600000000E+00 9.999999617E-01 3.020591021E-09 2.695308640E-01
4.700000000E+00 9.999999645E-01 2.805736236E-09 2.637961648E-01
4.800000000E+00 9.999999693E-01 7.371206537E-09 2.583004114E-01
4.900000000E+00 9.999999675E-01 7.954296088E-09 2.530289744E-01
5.000000000E+00 9.999999679E-01 7.233240524E-09 2.479683949E-01
5.100000000E+00 9.999999710E-01 6.693110941E-09 2.431062695E-01
5.200000000E+00 9.999999693E-01 8.664233452E-09 2.384311490E-01
5.300000000E+00 9.999999697E-01 8.053362661E-09 2.339324480E-01
5.400000000E+00 9.999999707E-01 7.485316152E-09 2.296003657E-01
5.500000000E+00 9.999999715E-01 8.145865445E-09 2.254258136E-01
5.600000000E+00 9.999999718E-01 7.677880717E-09 2.214003526E-01
5.700000000E+00 9.999999722E-01 7.213969843E-09 2.175161359E-01
5.800000000E+00 9.999999732E-01 6.967356725E-09 2.137658577E-01
5.900000000E+00 9.999999734E-01 6.335548292E-09 2.101427076E-01
6.000000000E+00 9.999999740E-01 5.974089128E-09 2.066403291E-01
6.100000000E+00 9.999999748E-01 5.706733841E-09 2.032527827E-01
6.200000000E+00 9.999999756E-01 5.524130234E-09 1.999745120E-01
6.300000000E+00 9.999999760E-01 5.038534041E-09 1.968003134E-01
6.400000000E+00 9.999999766E-01 4.767673600E-09 1.937253085E-01
6.500000000E+00 9.999999772E-01 4.548906091E-09 1.907449192E-01
6.600000000E+00 9.999999779E-01 4.412104737E-09 1.878548446E-01
6.700000000E+00 9.999999784E-01 4.054566639E-09 1.850510410E-01
6.800000000E+00 9.999999789E-01 3.846068644E-09 1.823297021E-01
6.900000000E+00 9.999999795E-01 3.650403751E-09 1.796872427E-01
7.000000000E+00 9.999999800E-01 3.534749472E-09 1.771202821E-01
7.100000000E+00 9.999999806E-01 3.435880265E-09 1.746256302E-01
7.200000000E+00 9.999999810E-01 3.134806789E-09 1.722002742E-01
7.300000000E+00 9.999999815E-01 2.982832676E-09 1.698413664E-01
7.400000000E+00 9.999999819E-01 2.843856941E-09 1.675462128E-01
7.500000000E+00 9.999999824E-01 2.768526331E-09 1.653122633E-01
7.600000000E+00 9.999999829E-01 2.696149690E-09 1.631371019E-01
7.700000000E+00 9.999999832E-01 2.461693538E-09 1.610184383E-01
7.800000000E+00 9.999999836E-01 2.349333901E-09 1.589540993E-01
7.900000000E+00 9.999999840E-01 2.243063666E-09 1.569420221E-01
8.000000000E+00 9.999999844E-01 2.186376888E-09 1.549802468E-01
8.100000000E+00 9.999999848E-01 2.132725512E-09 1.530669104E-01
8.200000000E+00 9.999999851E-01 1.962279761E-09 1.512002408E-01
8.300000000E+00 9.999999855E-01 1.878237801E-09 1.493785512E-01
8.400000000E+00 9.999999858E-01 1.798478916E-09 1.476002351E-01
8.500000000E+00 9.999999861E-01 1.740895142E-09 1.458637617E-01
8.600000000E+00 9.999999864E-01 1.700644591E-09 1.441676715E-01
8.700000000E+00 9.999999868E-01 1.661773999E-09 1.425105718E-01
8.800000000E+00 9.999999870E-01 1.521216392E-09 1.408911335E-01
8.900000000E+00 9.999999873E-01 1.460244455E-09 1.393080870E-01
9.000000000E+00 9.999999876E-01 1.402178009E-09 1.377602194E-01
9.100000000E+00 9.999999878E-01 1.364027840E-09 1.362463708E-01
9.200000000E+00 9.999999881E-01 1.334536217E-09 1.347654320E-01
9.300000000E+00 9.999999884E-01 1.305990813E-09 1.333163414E-01
9.400000000E+00 9.999999886E-01 1.194996801E-09 1.318980824E-01
9.500000000E+00 9.999999888E-01 1.148996192E-09 1.305096815E-01
9.600000000E+00 9.999999890E-01 1.105070889E-09 1.291502057E-01
9.700000000E+00 9.999999893E-01 1.071532230E-09 1.278187603E-01
9.800000000E+00 9.999999895E-01 1.049775796E-09 1.265144872E-01
9.900000000E+00 9.999999897E-01 1.028675314E-09 1.252365631E-01
1.000000000E+01 9.999999899E-01 9.493433949E-10 1.239841975E-01
1.010000000E+01 9.999999901E-01 9.145969181E-10 1.227566311E-01
1.020000000E+01 9.999999903E-01 8.813322589E-10 1.215531348E-01
1.030000000E+01 9.999999905E-01 8.494743594E-10 1.203730072E-01
1.040000000E+01 9.999999906E-01 8.298522984E-10 1.192155745E-01
1.050000000E+01 9.999999908E-01 8.141208580E-10 1.180801881E-01
1.060000000E+01 9.999999910E-01 7.988325435E-10 1.169662240E-01
1.070000000E+01 9.999999912E-01 7.362193339E-10 1.158730817E-01
1.080000000E+01 9.999999913E-01 7.107516285E-10 1.148001828E-01
1.090000000E+01 9.999999915E-01 6.863046073E-10 1.137469701E-01
1.100000000E+01 9.999999916E-01 6.628297394E-10 1.127129068E-01
1.110000000E+01 9.999999918E-01 6.476559252E-10 1.116974752E-01
1.120000000E+01 9.999999919E-01 6.361422716E-10 1.107001763E-01
1.130000000E+01 9.999999921E-01 6.249329356E-10 1.097205287E-01
1.140000000E+01 9.999999922E-01 6.140172865E-10 1.087580679E-01
1.150000000E+01 9.999999923E-01 5.607251785E-10 1.078123456E-01
1.160000000E+01 9.999999925E-01 5.426050203E-10 1.068829288E-01
1.170000000E+01 9.999999926E-01 5.251625117E-10 1.059693995E-01
1.180000000E+01 9.999999927E-01 5.086205874E-10 1.050713538E-01
1.190000000E+01 9.999999929E-01 5.001082593E-10 1.041884012E-01
1.200000000E+01 9.999999930E-01 4.918078514E-10 1.033201645E-01
1.210000000E+01 9.999999931E-01 4.837123871E-10 1.024662789E-01
1.220000000E+01 9.999999932E-01 4.484941280E-10 1.016263914E-01
1.230000000E+01 9.999999933E-01 4.348378530E-10 1.008001605E-01
1.240000000E+01 9.999999934E-01 4.216634515E-10 9.998725601E-02
1.250000000E+01 9.999999935E-01 4.089507338E-10 9.918735797E-02
1.260000000E+01 9.999999936E-01 3.966804978E-10 9.840015671E-02
1.270000000E+01 9.999999937E-01 3.900215259E-10 9.762535233E-02
1.280000000E+01 9.999999938E-01 3.839512446E-10 9.686265426E-02
1.290000000E+01 9.999999939E-01 3.780215847E-10 9.611178098E-02
1.300000000E+01 9.999999940E-01 3.722282362E-10 9.537245958E-02
1.310000000E+01 9.999999941E-01 3.428131690E-10 9.464442554E-02
1.320000000E+01 9.999999942E-01 3.330996179E-10 9.392742232E-02
1.330000000E+01 9.999999943E-01 3.237055797E-10 9.322120110E-02
1.340000000E+01 9.999999944E-01 3.146185643E-10 9.252552049E-02
1.350000000E+01 9.999999945E-01 3.067941506E-10 9.184014627E-02
1.360000000E+01 9.999999945E-01 3.022990589E-10 9.116485107E-02
1.370000000E+01 9.999999946E-01 2.979020403E-10 9.049941420E-02
1.380000000E+01 9.999999947E-01 2.936002622E-10 8.984362135E-02
1.390000000E+01 9.999999948E-01 2.893909939E-10 8.919726436E-02
1.400000000E+01 9.999999949E-01 2.670264206E-10 8.856014104E-02
1.410000000E+01 9.999999949E-01 2.599679298E-10 8.793205493E-02
1.420000000E+01 9.999999950E-01 2.531266928E-10 8.731281511E-02
1.430000000E+01 9.999999951E-01 2.464947536E-10 8.670223598E-02
1.440000000E+01 9.999999951E-01 2.400644966E-10 8.610013712E-02
1.450000000E+01 9.999999952E-01 2.365662198E-10 8.550634307E-02
1.460000000E+01 9.999999953E-01 2.333366847E-10 8.492068319E-02
1.470000000E+01 9.999999953E-01 2.301728340E-10 8.434299147E-02
1.480000000E+01 9.999999954E-01 2.270728986E-10 8.377310639E-02
1.490000000E+01 9.999999955E-01 2.114514216E-10 8.321087078E-02
1.500000000E+01 9.999999955E-01 2.062239105E-10 8.265613164E-02
1.510000000E+01 9.999999956E-01 2.011474684E-10 8.210874004E-02
1.520000000E+01 9.999999956E-01 1.962168937E-10 8.156855096E-02
1.530000000E+01 9.999999957E-01 1.914271944E-10 8.103542318E-02
1.540000000E+01 9.999999958E-01 1.867735783E-10 8.050921913E-02
1.550000000E+01 9.999999958E-01 1.843337440E-10 7.998980481E-02
1.560000000E+01 9.999999959E-01 1.819780654E-10 7.947704965E-02
1.570000000E+01 9.999999959E-01 1.796672563E-10 7.897082641E-02
1.580000000E+01 9.999999960E-01 1.774001843E-10 7.847101105E-02
1.590000000E+01 9.999999960E-01 1.751757525E-10 7.797748268E-02
1.600000000E+01 9.999999961E-01 1.620787473E-10 7.749012341E-02
1.610000000E+01 9.999999961E-01 1.583479460E-10 7.700881830E-02
1.620000000E+01 9.999999962E-01 1.547176451E-10 7.653345522E-02
1.630000000E+01 9.999999962E-01 1.511846168E-10 7.606392482E-02
1.640000000E+01 9.999999963E-01 1.477457549E-10 7.560012040E-02
1.650000000E+01 9.999999963E-01 1.449711070E-10 7.514193785E-02
1.660000000E+01 9.999999964E-01 1.432297282E-10 7.468927558E-02
1.670000000E+01 9.999999964E-01 1.415195378E-10 7.424203441E-02
1.680000000E+01 9.999999964E-01 1.398397955E-10 7.380011753E-02
1.690000000E+01 9.999999965E-01 1.381897829E-10 7.336343045E-02
1.700000000E+01 9.999999965E-01 1.365688024E-10 7.293188086E-02
1.710000000E+01 9.999999966E-01 1.265616251E-10 7.250537863E-02
1.720000000E+01 9.999999966E-01 1.238441877E-10 7.208383573E-02
1.730000000E+01 9.999999966E-01 1.211952273E-10 7.166716616E-02
1.740000000E+01 9.999999967E-01 1.186126844E-10 7.125528590E-02
1.750000000E+01 9.999999967E-01 1.160945721E-10 7.084811283E-02
1.760000000E+01 9.999999968E-01 1.136515291E-10 7.044556674E-02
1.770000000E+01 9.999999968E-01 1.123709587E-10 7.004756919E-02
1.780000000E+01 9.999999968E-01 1.111119103E-10 6.965404352E-02
1.790000000E+01 9.999999969E-01 1.098739042E-10 6.926491478E-02
1.800000000E+01 9.999999969E-01 1.086564742E-10 6.888010970E-02
1.810000000E+01 9.999999969E-01 1.074591668E-10 6.849955661E-02
1.820000000E+01 9.999999970E-01 1.004166877E-10 6.812318542E-02
1.830000000E+01 9.999999970E-01 9.839416798E-11 6.775092757E-02
1.840000000E+01 9.999999970E-01 9.641954296E-11 6.738271601E-02
1.850000000E+01 9.999999971E-01 9.449145801E-11 6.701848511E-02
1.860000000E+01 9.999999971E-01 9.260860337E-11 6.665817068E-02
1.870000000E+01 9.999999971E-01 9.076971251E-11 6.630170987E-02
1.880000000E+01 9.999999972E-01 8.897356041E-11 6.594904120E-02
1.890000000E+01 9.999999972E-01 8.791990802E-11 6.560010448E-02
1.900000000E+01 9.999999972E-01 8.699687076E-11 6.525484077E-02
1.910000000E+01 9.999999973E-01 8.608829348E-11 6.491319239E-02
1.920000000E+01 9.999999973E-01 8.519387571E-11 6.457510284E-02
1.930000000E+01 9.999999973E-01 8.431332477E-11 6.424051682E-02
1.940000000E+01 9.999999973E-01 8.344635547E-11 6.390938013E-02
1.950000000E+01 9.999999974E-01 7.775118266E-11 6.358163972E-02
1.960000000E+01 9.999999974E-01 7.628927528E-11 6.325724360E-02
1.970000000E+01 9.999999974E-01 7.485970779E-11 6.293614084E-02
1.980000000E+01 9.999999975E-01 7.346162534E-11 6.261828154E-02
1.990000000E+01 9.999999975E-01 7.209419956E-11 6.230361681E-02
2.000000000E+01 9.999999975E-01 7.075662763E-11 6.199209873E-02
2.010000000E+01 9.999999975E-01 6.944813138E-11 6.168368033E-02
2.020000000E+01 9.999999976E-01 6.869668268E-11 6.137831557E-02
2.030000000E+01 9.999999976E-01 6.802153510E-11 6.107595934E-02
2.040000000E+01 9.999999976E-01 6.735629181E-11 6.077656738E-02
2.050000000E+01 9.999999976E-01 6.670076003E-11 6.048009632E-02
2.060000000E+01 9.999999976E-01 6.605475163E-11 6.018650362E-02
2.070000000E+01 9.999999977E-01 6.541808304E-11 5.989574756E-02
2.080000000E+01 9.999999977E-01 6.119810209E-11 5.960778724E-02
2.090000000E+01 9.999999977E-01 6.011695893E-11 5.932258252E-02
2.100000000E+01 9.999999977E-01 5.905827209E-11 5.904009403E-02
2.110000000E+01 9.999999978E-01 5.802148421E-11 5.876028316E-02
2.120000000E+01 9.999999978E-01 5.700605412E-11 5.848311201E-02
2.130000000E+01 9.999999978E-01 5.601145637E-11 5.820854341E-02
2.140000000E+01 9.999999978E-01 5.503718064E-11 5.793654087E-02
2.150000000E+01 9.999999978E-01 5.408755763E-11 5.766706859E-02
2.160000000E+01 9.999999979E-01 5.358790619E-11 5.740009142E-02
2.170000000E+01 9.999999979E-01 5.309514645E-11 5.713557487E-02
2.180000000E+01 9.999999979E-01 5.260915225E-11 5.687348507E-02
2.190000000E+01 9.999999979E-01 5.212980028E-11 5.661378879E-02
2.200000000E+01 9.999999979E-01 5.165697007E-11 5.635645339E-02
2.210000000E+01 9.999999980E-01 5.119054383E-11 5.610144681E-02
2.220000000E+01 9.999999980E-01 5.073040645E-11 5.584873759E-02
2.230000000E+01 9.999999980E-01 4.721953626E-11 5.559829482E-02
2.240000000E+01 9.999999980E-01 4.643589516E-11 5.535008815E-02
2.250000000E+01 9.999999980E-01 4.566748689E-11 5.510408776E-02
2.260000000E+01 9.999999981E-01 4.491395793E-11 5.486026436E-02
2.270000000E+01 9.999999981E-01 4.417496436E-11 5.461858919E-02
2.280000000E+01 9.999999981E-01 4.345017158E-11 5.437903397E-02
2.290000000E+01 9.999999981E-01 4.273925403E-11 5.414157094E-02
2.300000000E+01 9.999999981E-01 4.210268769E-11 5.390617281E-02
2.310000000E+01 9.999999981E-01 4.173895127E-11 5.367281275E-02
2.320000000E+01 9.999999982E-01 4.137990819E-11 5.344146442E-02
2.330000000E+01 9.999999982E-01 4.102547806E-11 5.321210191E-02
2.340000000E+01 9.999999982E-01 4.067558219E-11 5.298469977E-02
2.350000000E+01 9.999999982E-01 4.033014357E-11 5.275923296E-02
2.360000000E+01 9.999999982E-01 3.998908680E-11 5.253567689E-02
2.370000000E+01 9.999999982E-01 3.965233810E-11 5.231400737E-02
2.380000000E+01 9.999999982E-01 3.700173172E-11 5.209420061E-02
2.390000000E+01 9.999999983E-01 3.642275044E-11 5.187623325E-02
2.400000000E+01 9.999999983E-01 3.585434518E-11 5.166008227E-02
2.410000000E+01 9.999999983E-01 3.529628544E-11 5.144572509E-02
2.420000000E+01 9.999999983E-01 3.474834663E-11 5.123313945E-02
2.430000000E+01 9.999999983E-01 3.421030986E-11 5.102230348E-02
2.440000000E+01 9.999999983E-01 3.368196179E-11 5.081319568E-02
2.450000000E+01 9.999999983E-01 3.316309446E-11 5.060579488E-02
2.460000000E+01 9.999999984E-01 3.272356248E-11 5.040008027E-02
2.470000000E+01 9.999999984E-01 3.245913073E-11 5.019603136E-02
2.480000000E+01 9.999999984E-01 3.219789131E-11 4.999362801E-02
2.490000000E+01 9.999999984E-01 3.193979302E-11 4.979285038E-02
2.500000000E+01 9.999999984E-01 3.168478571E-11 4.959367898E-02
2.510000000E+01 9.999999984E-01 3.143282022E-11 4.939609460E-02
2.520000000E+01 9.999999984E-01 3.118384837E-11 4.920007836E-02
2.530000000E+01 9.999999985E-01 3.093782291E-11 4.900561164E-02
2.540000000E+01 9.999999985E-01 2.894867456E-11 4.881267616E-02
2.550000000E+01 9.999999985E-01 2.852076822E-11 4.862125391E-02
2.560000000E+01 9.999999985E-01 2.810021182E-11 4.843132713E-02
2.570000000E+01 9.999999985E-01 2.768685492E-11 4.824287839E-02
2.580000000E+01 9.999999985E-01 2.728055066E-11 4.805589049E-02
2.590000000E+01 9.999999985E-01 2.688115569E-11 4.787034651E-02
2.600000000E+01 9.999999985E-01 2.648853008E-11 4.768622979E-02
2.610000000E+01 9.999999985E-01 2.610253724E-11 4.750352393E-02
2.620000000E+01 9.999999986E-01 2.572304376E-11 4.732221277E-02
2.630000000E+01 9.999999986E-01 2.541686800E-11 4.714228040E-02
2.640000000E+01 9.999999986E-01 2.522468065E-11 4.696371116E-02
2.650000000E+01 9.999999986E-01 2.503466490E-11 4.678648961E-02
2.660000000E+01 9.999999986E-01 2.484678815E-11 4.661060055E-02
2.670000000E+01 9.999999986E-01 2.466101842E-11 4.643602901E-02
2.680000000E+01 9.999999986E-01 2.447732433E-11 4.626276025E-02
2.690000000E+01 9.999999986E-01 2.429567505E-11 4.609077972E-02
2.700000000E+01 9.999999986E-01 2.411604036E-11 4.592007313E-02
2.710000000E+01 9.999999987E-01 2.393839058E-11 4.575062637E-02
2.720000000E+01 9.999999987E-01 2.224596541E-11 4.558242554E-02
2.730000000E+01 9.999999987E-01 2.192883014E-11 4.541545694E-02
2.740000000E+01 9.999999987E-01 2.161684274E-11 4.524970710E-02
2.750000000E+01 9.999999987E-01 2.130990414E-11 4.508516271E-02
2.760000000E+01 9.999999987E-01 2.100791748E-11 4.492181067E-02
2.770000000E+01 9.999999987E-01 2.071078811E-11 4.475963807E-02
2.780000000E+01 9.999999987E-01 2.041842346E-11 4.459863218E-02
2.790000000E+01 9.999999987E-01 2.013073304E-11 4.443878045E-02
2.800000000E+01 9.999999987E-01 1.984762838E-11 4.428007052E-02
2.810000000E+01 9.999999988E-01 1.960177493E-11 4.412249020E-02
2.820000000E+01 9.999999988E-01 1.946300173E-11 4.396602747E-02
2.830000000E+01 9.999999988E-01 1.932569704E-11 4.381067048E-02
2.840000000E+01 9.999999988E-01 1.918984018E-11 4.365640756E-02
2.850000000E+01 9.999999988E-01 1.905541089E-11 4.350322718E-02
2.860000000E+01 9.999999988E-01 1.892238923E-11 4.335111799E-02
2.870000000E+01 9.999999988E-01 1.879075562E-11 4.320006880E-02
2.880000000E+01 9.999999988E-01 1.866049081E-11 4.305006856E-02
2.890000000E+01 9.999999988E-01 1.853157589E-11 4.290110639E-02
2.900000000E+01 9.999999988E-01 1.840399227E-11 4.275317154E-02
2.910000000E+01 9.999999988E-01 1.706661533E-11 4.260625342E-02
2.920000000E+01 9.999999988E-01 1.683696394E-11 4.246034160E-02
2.930000000E+01 9.999999989E-01 1.661081056E-11 4.231542575E-02
2.940000000E+01 9.999999989E-01 1.638809211E-11 4.217149573E-02
2.950000000E+01 9.999999989E-01 1.616874682E-11 4.202854151E-02
2.960000000E+01 9.999999989E-01 1.595271423E-11 4.188655320E-02
2.970000000E+01 9.999999989E-01 1.573993517E-11 4.174552103E-02
2.980000000E+01 9.999999989E-01 1.553035167E-11 4.160543539E-02
2.990000000E+01 9.999999989E-01 1.532390697E-11 4.146628678E-02
3.000000000E+01 9.999999989E-01 1.512054552E-11 4.132806582E-02
3.010000000E+01 9.999999989E-01 1.500708195E-11 4.119076328E-02
3.020000000E+01 9.999999989E-01 1.490786185E-11 4.105437002E-02
3.030000000E+01 9.999999989E-01 1.480962250E-11 4.091887705E-02
3.040000000E+01 9.999999989E-01 1.471235102E-11 4.078427548E-02
3.050000000E+01 9.999999989E-01 1.461603474E-11 4.065055654E-02
3.060000000E+01 9.999999990E-01 1.452066120E-11 4.051771159E-02
3.070000000E+01 9.999999990E-01 1.442621812E-11 4.038573207E-02
3.080000000E+01 9.999999990E-01 1.433269345E-11 4.025460956E-02
3.090000000E+01 9.999999990E-01 1.424007532E-11 4.012433575E-02
3.100000000E+01 9.999999990E-01 1.414835205E-11 3.999490241E-02
3.110000000E+01 9.999999990E-01 1.313921536E-11 3.986630143E-02
3.120000000E+01 9.999999990E-01 1.297436958E-11 3.973852483E-02
3.130000000E+01 9.999999990E-01 1.281187158E-11 3.961156468E-02
3.140000000E+01 9.999999990E-01 1.265168173E-11 3.948541320E-02
3.150000000E+01 9.999999990E-01 1.249376117E-11 3.936006269E-02
3.160000000E+01 9.999999990E-01 1.233807184E-11 3.923550552E-02
3.170000000E+01 9.999999990E-01 1.218457640E-11 3.911173421E-02
3.180000000E+01 9.999999990E-01 1.203323825E-11 3.898874134E-02
3.190000000E+01 9.999999990E-01 1.188402150E-11 3.886651958E-02
3.200000000E+01 9.999999991E-01 1.173689096E-11 3.874506171E-02
3.210000000E+01 9.999999991E-01 1.160114978E-11 3.862436058E-02
3.220000000E+01 9.999999991E-01 1.152920484E-11 3.850440915E-02
3.230000000E+01 9.999999991E-01 1.145792709E-11 3.838520045E-02
3.240000000E+01 9.999999991E-01 1.138730829E-11 3.826672761E-02
3.250000000E+01 9.999999991E-01 1.131734035E-11 3.814898383E-02
3.260000000E+01 9.999999991E-01 1.124801531E-11 3.803196241E-02
3.270000000E+01 9.999999991E-01 1.117932530E-11 3.791565672E-02
